515,507,502,506,514,515,507,502,507,514,515,507,502,506,514,516,507,502,507,514,516,507,502,506,514,516,508,503,507,514,516,507,502,506,514,516,508,503,507,514,516,507,502,506,514,516,508,503,506,514,515,507,502,506,514,516,508,502,506,514,515,507,502,506,514,516,508,502,506,514,515,507,502,506,514,516,508,503,507,514,516,507,502,506,514,516,508,503,507,514,516,507,502,506,514,516,508,503,507,514,516,508,502,506,514,516,508,503,507,514,516,507,502,506,514,516,508,503,506,514,516,508,502,506,514,516,508,503,506,514,516,508,502,506,514,516,508,503,507,514,516,508,502,506,514,516,508,503,506,514,516,508,502,506,514,516,509,503,506,514,516,508,502,506,514,516,509,503,507,514,516,508,503,506,514,516,508,503,506,514,516,508,502,506,514,516,509,503,507,514,516,508,502,506,514,517,509,503,506,514,516,508,502,506,514,516,509,503,506,514,516,508,502,506,514,517,509,503,506,514,516,508,502,506,514,517,509,503,506,514,516,509,502,506,514,517,509,503,506,514,516,508,502,506,514,517,509,503,506,514,516,508,502,506,514,517,509,503,506,514,516,509,502,506,514,517,509,503,506,514,516,509,503,506,514,517,509,503,506,514,516,509,503,506,514,516,509,503,506,514,517,509,503,506,514,517,509,503,506,514,516,508,502,505,513,516,509,503,506,513,516,509,502,505,513,516,509,503,506,513,516,508,502,505,513,516,509,503,506,513,516,508,502,505,513,516,509,503,506,513,516,509,502,505,513,517,509,503,506,513,516,509,502,505,513,517,509,503,506,513,516,509,502,505,513,517,509,503,506,513,516,509,502,505,513,516,509,503,506,513,516,509,502,505,513,517,510,503,506,513,516,509,502,505,513,516,509,503,505,513,516,509,502,505,513,516,509,503,505,513,516,509,502,505,513,516,509,503,505,513,516,509,502,505,513,517,510,503,505,513,516,509,502,505,513,516,510,503,505,513,516,509,502,505,513,516,509,503,505,513,516,509,502,505,513,517,510,503,505,513,516,509,502,505,513,517,510,503,505,513,516,509,502,505,513,516,510,503,505,513,516,509,502,505,513,517,510,503,505,513,516,509,502,505,513,517,510,503,505,513,516,509,502,505,513,516,510,503,505,513,516,509,502,505,513,516,510,503,505,513,516,509,502,505,513,517,510,503,505,513,517,510,502,505,512,516,510,503,505,513,516,509,502,505,512,517,510,503,505,513,516,509,502,505,512,517,510,503,505,513,516,509,502,505,512,517,510,503,505,512,516,510,502,505,512,517,510,503,505,513,516,510,502,505,512,517,510,503,505,513,516,510,502,505,512,517,510,503,505,512,516,510,502,505,512,517,510,503,505,512,516,510,502,504,512,516,510,503,505,512,516,510,502,504,512,516,510,503,505,512,516,510,502,504,512,517,510,503,505,512,516,510,502,504,512,516,510,503,505,512,516,510,502,504,512,516,510,503,505,512,516,510,502,504,512,517,510,503,505,512,517,510,502,504,512,516,510,503,505,512,516,510,502,504,512,516,510,503,505,512,516,510,502,504,512,516,510,503,504,512,516,510,502,504,512,516,510,503,504,512,516,510,502,504,512,516,510,503,504,512,516,510,502,504,512,516,511,503,504,512,516,510,502,504,512,516,511,503,504,512,516,510,502,504,512,516,510,503,504,512,516,510,502,504,512,516,511,503,505,512,516,510,502,504,512,517,511,503,505,512,516,510,503,504,512,517,511,503,504,512,516,510,503,504,512,516,511,503,504,512,516,510,502,504,512,516,511,503,504,512,516,510,502,504,512,517,511,503,504,512,516,510,503,504,512,516,511,503,504,512,516,510,502,504,512,516,511,503,504,512,516,511,503,504,512,517,511,503,504,512,516,510,502,504,512,516,511,503,504,512,516,511,503,504,512,516,511,503,504,512,516,511,503,504,511,516,511,503,504,511,516,510,502,504,511,516,511,503,504,512,516,511,503,504,512,516,511,503,504,512,516,511,503,504,511,516,511,503,504,512,516,511,503,504,512,517,511,503,504,511,516,511,503,504,511,516,511,503,504,511,516,511,503,504,511,516,511,503,504,512,516,511,503,504,511,517,511,503,504,511,516,511,503,504,511,517,512,504,505,512,517,511,503,504,511,516,511,503,504,511,516,511,503,504,511,516,511,503,504,511,516,511,503,504,511,516,511,503,504,512,516,511,503,504,511,517,512,503,504,511,516,511,503,504,511,517,511,503,504,511,516,511,503,504,511,517,512,504,504,511,516,511,503,504,511,517,512,504,504,511,516,511,503,504,511,517,512,503,504,511,516,511,503,504,511,516,512,503,504,511,516,511,503,504,511,516,512,503,504,511,516,511,503,503,511,516,511,503,503,511,516,511,503,503,511,516,511,503,503,511,516,511,502,503,511,516,511,503,503,511,516,511,502,503,511,516,511,503,503,510,516,511,503,503,510,516,511,503,503,511,516,511,503,503,510,516,511,503,503,510,515,510,502,503,510,516,511,503,504,511,516,511,503,503,510,516,511,503,504,511,516,511,502,503,511,516,512,503,504,511,516,511,503,503,510,516,511,503,503,511,516,511,503,503,511,516,512,503,503,510,516,511,503,503,511,516,511,503,503,510,516,511,503,503,510,516,511,503,503,510,516,511,503,503,510,516,511,503,503,510,516,511,503,503,510,516,512,503,503,510,516,511,502,503,510,516,511,503,503,510,516,511,502,503,510,516,511,503,503,510,516,511,502,503,510,516,511,503,503,510,516,511,503,502,510,516,511,503,503,510,516,511,502,503,510,516,511,503,503,510,516,511,502,503,510,516,512,503,503,510,515,511,503,503,510,516,512,503,503,510,516,511,503,503,510,516,512,503,503,510,516,511,503,503,510,516,512,503,503,510,516,511,503,503,510,517,512,504,503,510,516,511,503,503,510,516,512,503,503,510,516,512,503,503,510,516,512,503,503,510,516,512,503,503,510,516,512,504,503,510,516,512,503,503,510,516,512,504,504,511,516,512,503,503,510,516,512,504,503,511,516,512,503,503,511,517,512,504,504,511,517,513,504,503,511,517,512,504,504,511,516,512,504,503,510,516,512,504,504,511,516,512,504,503,510,517,512,504,504,511,517,512,504,503,510,516,512,504,504,511,516,512,503,503,510,516,512,504,504,510,516,512,504,503,510,516,512,504,504,510,516,512,504,503,510,516,512,504,503,510,516,512,503,503,510,516,512,504,503,510,516,512,504,503,510,516,512,504,503,510,516,512,503,503,510,517,513,504,503,510,516,512,504,503,510,517,513,504,504,511,517,512,504,503,510,517,513,504,504,510,516,512,504,503,510,517,513,504,504,510,517,513,504,503,511,517,513,504,504,511,517,513,504,503,510,517,513,504,504,510,517,512,504,503,510,517,513,504,504,510,516,512,504,503,510,516,513,504,503,510,516,512,504,503,510,516,513,504,503,510,516,512,503,503,509,516,512,504,503,510,516,512,503,503,510,516,513,504,503,510,516,513,504,503,510,517,513,504,503,510,516,512,504,503,510,517,513,505,504,510,517,513,504,503,510,517,513,505,504,511,517,513,504,503,510,517,513,505,504,510,517,513,504,503,510,517,514,505,504,510,517,513,504,503,510,517,513,504,503,510,516,513,504,503,510,517,513,504,503,510,516,513,504,503,510,516,513,504,503,510,516,512,504,502,509,516,513,504,503,510,516,512,504,502,509,516,513,504,503,509,516,512,503,502,509,516,513,504,503,510,516,512,503,502,509,516,513,504,503,510,516,512,504,503,509,516,513,504,503,509,516,512,504,502,509,516,513,504,503,509,516,512,504,502,509,516,513,504,503,510,516,513,504,503,509,516,513,504,503,509,516,512,504,502,509,516,513,504,503,510,516,513,504,503,509,516,513,504,503,510,516,513,504,503,509,516,513,504,503,510,516,513,504,503,509,516,513,505,503,510,516,513,504,503,510,516,513,505,503,510,516,513,504,503,509,516,513,505,503,510,516,513,504,503,509,516,513,504,503,510,516,513,504,503,509,516,513,505,503,510,516,513,504,502,509,516,513,505,503,510,516,513,504,503,510,516,514,505,503,510,516,513,504,503,510,517,514,505,503,510,516,513,504,503,510,517,514,505,503,510,516,513,504,503,510,517,514,505,503,510,516,513,504,503,510,517,514,505,503,510,516,513,504,503,509,517,514,505,503,510,516,513,505,503,509,516,514,505,503,509,516,514,505,503,509,516,514,505,503,510,516,513,505,503,509,516,514,505,503,510,516,513,505,503,510,516,514,505,503,509,516,513,505,503,509,516,514,505,503,510,516,513,505,503,509,517,514,505,503,509,516,514,505,503,509,516,514,505,503,509,516,513,505,503,509,516,514,505,503,509,516,513,505,503,509,516,514,505,503,509,516,513,504,503,509,516,514,505,503,509,516,514,505,503,509,516,514,505,503,509,516,514,505,503,509,516,514,505,503,509,516,514,505,503,509,516,514,505,503,509,516,514,505,503,509,516,514,505,503,509,516,514,505,503,509,516,514,505,503,509,516,514,505,503,509,516,514,506,503,509,516,514,505,503,509,516,514,505,503,509,516,514,505,503,509,516,514,505,503,509,516,513,505,503,509,516,514,505,503,509,516,514,505,503,509,516,514,505,503,509,516,514,505,503,509,516,514,505,503,509,516,514,505,502,509,516,514,505,503,509,516,513,505,502,509,516,514,505,503,509,516,513,505,502,509,516,514,505,503,509,516,514,505,502,509,516,514,505,503,509,516,514,505,502,509,516,514,505,503,509,516,514,505,502,509,516,514,505,503,509,516,514,505,502,509,516,514,505,503,509,516,514,505,502,509,516,514,505,503,509,516,514,505,502,508,515,513,505,503,509,516,514,505,502,508,515,514,505,503,509,516,514,505,502,508,515,514,505,503,509,516,514,505,502,508,516,514,506,503,509,516,514,505,502,508,516,514,506,503,509,516,514,505,502,508,516,514,506,503,509,516,514,505,502,508,516,514,506,503,509,516,514,505,502,508,516,514,506,503,509,516,514,505,502,508,516,514,505,503,509,516,514,505,503,508,516,514,505,503,508,516,514,505,503,509,516,514,505,503,509,516,514,505,503,509,516,515,506,503,508,516,514,505,502,508,516,515,506,503,508,516,514,505,502,508,516,515,506,503,508,516,514,505,502,508,516,515,506,503,508,516,514,505,502,508,516,515,506,503,508,516,514,506,502,508,516,515,506,503,508,516,514,505,502,508,516,515,506,502,508,516,514,506,502,508,516,515,506,503,508,516,514,506,502,508,516,515,506,503,508,516,514,505,502,508,516,515,506,503,508,516,514,505,502,508,516,515,506,503,508,516,514,506,502,508,516,515,506,503,508,516,514,506,502,508,516,515,507,503,508,515,514,505,502,508,516,516,507,504,508,515,514,505,502,508,516,516,507,503,508,515,513,505,502,508,516,516,507,503,508,515,514,505,502,508,516,516,507,503,508,515,514,506,502,508,516,515,507,503,508,515,514,506,502,508,516,515,507,503,508,515,514,505,502,508,516,515,507,503,508,515,514,506,502,508,516,515,506,503,508,515,514,506,502,508,516,515,507,503,508,516,515,506,502,507,515,515,506,503,508,515,515,506,502,508,516,515,506,503,507,515,518,511,503,497,496,497,498,506,515,518,512,503,503,510,517,513,504,503,510,516,513,504,503,510,517,513,505,503,510,517,513,504,503,510,517,514,505,503,510,516,512,504,502,509,516,513,504,503,509,516,512,504,503,510,516,513,503,502,508,515,512,504,503,510,516,512,503,501,508,515,512,504,503,510,516,512,503,502,509,516,513,504,503,510,516,513,504,502,509,515,512,504,503,509,516,513,504,502,509,516,513,504,502,509,515,512,503,502,509,516,513,504,503,509,516,513,504,502,509,516,513,504,503,509,516,513,504,502,509,515,512,504,502,509,516,513,504,502,509,515,512,504,502,509,516,513,504,502,509,515,512,504,502,509,516,513,504,503,509,515,512,504,502,509,516,513,504,503,509,516,512,503,502,508,516,513,504,502,509,516,513,504,502,509,516,513,504,503,509,516,513,504,502,509,516,513,504,502,509,516,513,504,502,509,516,513,504,502,509,516,513,504,502,509,516,513,505,503,509,516,513,504,502,509,516,513,505,503,509,515,513,504,502,509,516,513,505,503,509,516,513,504,502,509,516,514,505,503,509,515,513,504,502,508,516,514,505,503,509,516,513,504,502,508,516,513,505,503,509,515,513,504,502,509,516,514,505,503,509,516,513,504,502,509,516,514,505,503,509,516,513,505,503,509,516,514,505,503,509,516,513,505,503,509,516,514,505,503,509,516,514,505,503,509,516,514,505,503,509,516,513,505,502,509,516,514,505,503,509,516,513,505,502,509,516,514,505,503,509,516,513,505,502,509,516,514,505,503,509,516,514,505,502,509,516,514,505,503,509,516,513,505,502,509,516,514,505,503,509,516,513,505,502,509,516,514,505,503,509,516,514,505,502,509,516,514,505,503,509,516,514,505,503,509,516,514,505,503,509,516,514,505,502,509,516,514,505,503,509,516,514,505,502,509,516,514,505,503,508,515,513,505,502,509,516,514,505,503,508,515,513,505,502,509,516,514,506,503,509,516,513,504,501,507,515,514,506,503,509,516,513,504,501,507,515,514,505,503,509,516,513,504,501,507,515,514,506,503,509,516,514,504,502,508,516,514,506,503,509,515,513,504,501,508,515,514,505,503,509,515,513,504,502,508,516,514,505,503,509,516,514,505,502,508,516,514,506,503,509,516,514,505,502,508,516,514,506,503,509,516,514,505,502,508,516,514,505,502,508,516,514,505,503,508,516,514,505,503,508,516,514,505,502,508,516,514,505,503,508,515,514,505,502,509,516,514,505,503,508,516,514,505,503,509,516,515,506,503,509,516,515,506,503,509,517,515,506,503,509,516,514,506,503,509,516,515,506,503,509,516,515,506,503,509,516,515,506,503,509,516,514,506,503,509,516,515,506,503,509,516,514,506,503,509,516,515,506,503,508,516,515,506,503,508,516,515,506,503,508,516,514,506,503,508,516,515,506,503,508,516,514,506,503,508,516,515,506,503,508,516,514,506,503,508,516,515,506,503,508,516,515,506,503,508,516,515,506,503,508,516,515,506,502,508,515,514,506,503,509,516,515,506,503,508,516,515,506,503,508,516,515,506,503,508,516,515,506,503,508,516,514,506,502,508,516,515,506,503,508,516,515,506,502,508,515,514,506,503,508,516,515,506,503,509,516,516,507,503,509,516,515,506,503,508,516,515,506,503,509,516,515,507,503,509,517,516,507,503,509,516,515,506,503,508,516,516,507,503,509,516,516,507,503,509,517,516,507,504,509,516,515,507,503,509,517,516,507,504,509,517,516,507,504,509,517,516,508,504,509,516,515,507,503,509,516,516,507,504,509,516,516,507,503,509,517,516,507,504,509,516,515,507,503,508,516,516,507,503,509,516,516,507,503,508,516,516,507,503,508,516,515,507,503,508,516,516,507,503,508,515,515,506,503,508,516,515,507,503,508,515,515,506,502,508,515,515,506,503,507,515,514,506,502,507,515,515,506,502,507,515,514,506,502,507,515,515,506,502,507,515,515,506,502,507,515,515,506,502,507,515,515,506,502,507,515,515,506,502,507,515,515,506,502,507,515,515,507,502,507,515,515,506,502,507,515,515,507,502,507,515,515,506,502,507,515,515,507,502,507,515,515,506,502,507,515,515,507,503,507,515,515,506,502,507,515,515,507,502,507,515,515,506,502,507,515,515,507,503,507,515,515,506,502,507,515,515,507,502,507,515,515,506,502,507,515,515,507,503,508,515,515,506,502,507,515,515,507,502,507,515,515,506,502,507,515,515,507,503,507,515,515,506,502,507,515,515,507,503,507,515,515,506,502,507,515,515,507,503,507,515,515,506,502,507,515,515,507,502,507,515,515,507,502,507,515,516,507,503,507,515,515,506,502,507,515,515,507,503,507,515,515,506,502,507,515,516,507,503,507,515,515,507,502,507,515,515,507,503,507,515,515,507,502,507,515,516,507,502,507,515,515,506,502,507,515,515,507,502,507,515,515,507,502,507,515,515,507,502,507,515,515,506,502,507,515,516,507,502,507,515,515,507,502,507,515,515,507,502,507,515,515,507,502,507,515,516,507,502,507,515,515,507,502,507,515,516,507,502,507,515,515,507,502,507,515,516,507,502,507,515,515,507,502,507,515,516,507,502,507,515,515,507,502,507,515,516,507,503,507,515,515,507,502,507,515,516,508,503,507,515,515,507,502,507,515,516,507,502,507,515,515,507,502,507,515,516,507,502,507,514,515,507,502,507,515,516,507,502,507,514,515,507,502,507,515,516,508,502,507,514,515,507,502,507,515,516,507,502,507,514,515,507,502,507,515,516,508,502,507,514,515,507,502,506,515,516,508,502,507,514,515,507,502,507,515,516,508,503,507,514,515,507,502,506,515,516,508,503,507,514,516,507,502,506,515,516,508,502,507,514,516,507,502,507,515,516,508,503,507,514,515,507,502,506,514,516,508,503,506,514,515,507,502,506,514,516,508,503,506,514,515,507,502,506,515,516,508,502,506,514,515,507,502,506,514,516,508,502,506,514,516,507,502,506,514,516,508,503,506,514,516,508,502,506,514,516,508,502,506,514,516,508,502,506,514,516,508,502,506,514,516,508,502,506,514,516,508,502,506,514,516,508,502,506,514,516,508,503,506,514,516,508,502,506,514,516,508,502,506,514,516,508,502,506,514,516,508,503,506,514,516,508,502,506,514,516,508,503,506,514,516,508,502,506,514,516,508,503,506,514,516,508,502,506,514,516,508,502,506,514,516,508,502,506,514,516,508,503,506,514,516,508,502,506,514,516,508,503,506,514,516,508,502,506,514,516,509,503,506,514,516,508,502,506,514,516,508,503,506,514,516,508,502,506,514,516,509,503,506,514,516,508,502,506,514,516,509,503,506,514,516,508,502,506,514,516,509,503,506,514,516,508,502,506,514,516,509,503,506,514,516,508,502,506,514,516,509,502,506,514,516,508,502,506,514,516,509,503,506,514,516,508,502,506,514,517,509,503,506,513,516,508,502,506,514,516,509,503,506,514,516,508,502,506,514,516,509,502,506,513,516,508,502,506,514,516,509,502,506,513,516,508,502,506,514,516,509,503,506,513,516,508,502,506,514,516,509,502,506,513,516,508,502,505,514,517,509,503,506,513,516,508,502,505,514,516,509,502,505,513,516,508,502,506,514,517,509,503,505,513,519,513,505,498,496,496,497,503,512,518,515,505,503,507,515,515,507,502,507,515,515,506,502,507,515,515,507,502,507,515,515,506,502,507,515,515,507,502,507,515,515,506,502,507,515,515,507,502,507,515,515,506,502,507,515,515,507,502,507,515,515,506,502,507,515,515,507,502,507,515,515,507,502,507,515,515,507,502,507,515,515,506,502,507,515,516,507,502,507,515,515,507,502,507,515,516,507,502,507,515,515,507,502,507,515,516,507,503,507,515,515,507,502,507,515,516,507,503,507,515,515,506,502,507,515,515,507,502,507,515,515,507,502,507,515,515,507,502,507,515,515,507,502,507,515,515,507,502,507,515,515,507,502,507,515,516,507,502,507,515,515,507,502,507,515,516,507,503,507,514,515,507,502,507,515,516,507,502,507,514,515,507,502,507,515,516,507,503,507,515,515,507,502,507,515,516,507,503,507,514,515,507,502,507,515,516,508,503,507,515,515,507,502,507,515,516,507,502,507,514,515,507,502,507,515,516,507,502,507,514,515,507,502,507,515,516,507,502,507,514,515,507,502,507,515,516,507,502,506,514,515,507,502,507,515,516,508,503,507,514,515,507,502,507,515,516,508,502,506,514,515,507,502,507,515,516,508,502,506,514,515,507,502,506,514,516,508,502,506,514,515,507,502,506,515,516,508,502,506,514,515,507,502,506,515,516,508,503,506,514,515,507,502,506,515,516,508,502,506,514,516,508,502,506,515,516,508,502,506,514,516,507,502,506,514,516,508,502,506,514,515,507,502,506,514,516,508,502,506,514,515,507,502,506,514,516,508,502,506,514,515,507,502,506,514,516,508,502,506,514,516,507,502,506,514,516,508,502,506,514,516,508,502,506,514,516,508,502,506,514,516,508,502,506,514,516,508,503,506,514,515,508,502,506,514,516,508,502,506,514,515,508,502,506,514,516,508,502,506,514,515,507,502,506,514,516,508,502,506,514,516,508,502,506,514,516,508,502,506,514,516,508,502,506,514,516,508,502,506,514,516,508,502,506,514,516,508,502,506,514,516,508,502,506,514,516,508,502,506,514,516,508,502,506,514,516,508,502,506,514,516,508,502,506,514,516,508,502,506,514,516,508,502,506,514,516,508,502,506,513,516,508,502,506,514,516,508,502,506,513,516,508,502,506,514,516,508,502,506,513,516,508,502,506,514,516,508,502,506,513,516,508,502,506,514,516,509,502,506,513,516,508,502,506,514,516,509,502,506,513,516,508,502,506,514,516,509,503,506,513,516,508,502,506,514,516,509,503,506,513,516,508,502,506,514,516,509,503,506,513,516,508,502,506,514,517,509,503,506,513,516,509,502,506,514,516,509,503,506,513,516,509,502,506,514,517,509,503,506,513,516,509,502,506,514,517,509,503,506,513,516,509,502,506,514,517,509,503,506,513,516,509,502,506,514,517,509,503,506,513,516,509,502,506,514,517,509,503,506,513,516,509,502,506,514,517,509,503,505,513,516,509,502,506,514,517,509,503,506,513,516,508,502,505,513,517,509,503,506,513,516,509,502,505,513,517,509,502,505,513,516,509,502,505,513,517,509,502,505,513,516,509,502,505,513,517,509,503,505,513,516,509,502,505,513,517,509,503,505,513,516,509,502,505,513,517,510,503,506,513,516,509,502,505,513,517,509,503,505,513,516,509,502,505,513,517,509,503,505,513,517,509,503,506,514,517,510,503,505,513,517,510,503,505,513,517,510,503,505,513,516,509,503,505,513,517,510,503,505,513,516,509,503,505,513,517,510,503,505,513,516,509,503,505,513,517,510,503,505,513,516,509,503,505,513,517,510,503,505,513,516,509,502,505,513,517,510,503,505,513,516,509,502,505,513,517,510,503,505,513,516,509,502,505,513,517,510,503,505,513,516,509,502,505,513,517,510,503,505,512,516,509,502,505,513,517,510,503,505,513,516,509,502,505,513,517,510,503,505,512,516,509,502,505,513,517,510,503,505,513,516,510,502,505,513,517,510,503,505,512,516,509,502,505,513,517,510,503,505,512,516,509,502,505,513,517,510,503,505,512,516,509,502,505,512,517,510,503,505,512,516,509,502,505,512,517,510,503,505,512,516,509,502,505,512,517,510,503,505,512,516,510,503,505,512,516,510,502,504,512,516,509,502,505,512,517,510,503,505,512,516,510,502,505,512,517,510,503,504,512,516,510,502,505,512,517,510,503,505,512,516,510,502,504,512,517,510,503,504,512,516,510,503,505,513,517,510,503,504,512,516,510,502,505,512,517,510,503,504,512,516,510,503,505,512,517,510,503,505,512,516,510,503,505,512,517,510,503,505,512,517,510,503,505,512,517,511,503,505,512,516,510,502,504,512,517,510,503,504,512,516,510,503,505,512,517,511,503,504,512,516,510,502,504,512,516,510,503,504,512,516,510,502,504,512,517,510,503,504,512,516,510,502,504,512,516,510,502,504,512,516,510,502,504,512,517,511,503,504,512,516,510,502,504,512,516,510,503,504,512,516,510,502,504,512,517,511,503,504,512,516,510,502,504,512,517,511,503,504,512,516,510,503,504,512,517,511,503,504,512,516,510,502,504,512,517,511,503,504,512,516,510,502,504,512,516,511,503,504,512,516,510,503,504,512,517,511,503,504,512,516,510,502,504,512,517,511,503,504,512,516,511,503,504,512,517,511,503,504,512,516,511,503,504,512,517,511,503,504,512,516,511,503,504,512,517,511,503,504,512,516,511,503,504,512,517,511,503,504,511,516,511,503,504,512,517,511,503,504,512,516,511,503,504,512,517,511,503,504,511,516,511,503,504,512,517,511,503,504,511,516,511,503,504,512,517,511,503,504,511,516,511,503,504,512,517,512,503,504,511,516,511,503,504,512,517,512,503,504,512,517,511,503,504,512,517,512,503,504,512,517,511,503,504,512,517,512,503,504,511,517,511,503,504,512,517,512,503,504,511,517,511,503,504,512,517,512,503,504,511,516,511,503,504,512,517,512,503,504,511,517,511,503,504,512,517,512,503,504,511,516,511,503,504,512,517,512,503,504,511,516,511,503,504,512,517,512,504,504,511,516,511,503,504,512,517,512,504,504,511,516,512,503,504,512,517,512,504,504,511,516,512,503,504,511,517,512,503,504,511,517,512,503,504,511,517,512,504,504,511,516,512,503,504,511,517,512,504,504,511,516,512,503,504,511,517,512,504,504,511,516,511,503,503,511,517,512,504,504,511,516,512,503,504,511,517,512,504,504,511,516,512,503,504,511,517,512,504,504,511,517,512,503,504,511,517,512,504,504,511,517,512,503,503,511,517,512,504,504,511,516,512,503,504,511,517,512,504,504,511,517,512,504,504,511,517,512,504,504,511,517,512,504,504,511,517,512,504,504,511,516,512,504,504,511,517,513,504,504,511,517,512,504,504,511,517,513,504,504,511,516,512,504,504,511,517,513,504,504,511,516,512,504,503,511,517,513,504,503,511,516,512,504,504,511,517,513,504,503,510,516,512,504,503,511,517,513,504,503,510,516,512,504,503,511,517,513,504,504,510,516,512,504,503,511,517,513,504,503,510,516,512,504,503,511,517,513,504,503,510,516,512,504,503,511,517,513,504,503,510,516,513,504,503,511,517,513,504,503,510,516,512,504,503,511,517,513,504,503,510,516,513,504,503,511,517,513,504,503,510,516,513,504,503,510,517,513,504,503,510,516,513,504,503,510,517,513,504,503,510,516,513,504,503,510,517,513,505,503,510,516,513,504,503,510,517,513,505,503,510,516,513,504,503,510,517,513,505,503,510,516,513,504,503,510,517,513,505,503,510,516,513,504,503,510,517,514,505,503,510,516,513,504,503,510,517,513,504,503,510,516,513,504,503,510,517,513,505,503,510,516,513,504,503,510,517,514,505,503,510,516,513,505,503,510,517,514,505,503,510,516,513,504,503,510,517,514,505,503,510,516,513,504,503,510,517,514,505,503,509,516,513,505,503,510,517,514,505,503,509,516,513,505,503,510,517,514,505,503,510,516,513,505,503,510,517,514,505,503,509,516,513,504,503,510,517,514,505,503,509,516,513,505,503,510,516,514,505,503,509,516,513,504,503,509,516,514,505,503,509,516,513,505,503,509,516,514,505,503,509,516,513,505,503,509,516,514,505,503,509,516,513,505,503,509,516,514,505,503,509,516,513,505,503,509,516,514,505,503,509,516,513,505,503,509,516,514,505,503,509,516,514,505,503,509,516,514,505,503,509,516,514,505,503,509,516,514,505,503,509,516,513,505,502,509,516,514,505,503,509,516,514,505,503,509,516,514,505,502,509,516,514,505,503,509,516,514,505,503,509,516,514,505,503,509,516,514,505,503,509,516,514,505,503,509,516,514,505,503,509,516,514,505,503,509,516,514,505,503,509,516,514,505,503,509,516,514,506,503,509,516,514,505,503,509,516,514,506,503,508,516,514,505,503,509,516,515,506,503,509,516,514,505,503,509,516,515,506,503,508,516,514,505,503,509,516,514,506,502,508,516,514,505,503,509,516,515,506,503,508,516,514,505,503,509,516,515,506,503,508,516,514,505,503,509,516,515,506,503,508,516,514,505,503,509,516,515,506,503,508,516,514,506,503,508,516,515,506,502,508,516,514,506,503,508,516,515,506,502,508,515,514,506,503,508,516,515,506,503,508,515,514,506,502,508,516,515,506,503,508,515,514,506,503,508,516,515,506,502,508,515,514,506,503,508,516,515,506,503,508,515,514,506,502,508,516,515,506,502,508,515,514,506,503,508,516,515,506,502,508,515,515,506,503,508,516,515,506,502,508,515,515,506,502,508,516,515,506,503,508,515,515,506,502,508,516,515,506,502,508,515,515,506,503,508,516,515,506,502,508,515,515,506,502,508,516,515,507,503,507,515,514,506,502,508,516,515,506,502,508,515,515,506,503,508,516,515,506,502,508,515,515,506,502,508,516,515,506,502,507,515,515,506,503,508,516,515,507,502,507,515,515,506,502,508,516,515,507,503,507,515,515,506,502,508,515,515,506,502,507,515,515,506,502,508,516,515,507,502,507,515,515,506,503,508,516,516,507,502,507,515,515,507,503,508,516,516,507,502,507,515,515,507,503,508,515,515,507,502,507,515,515,507,502,508,515,516,507,502,507,515,515,507,502,507,515,515,507,502,507,515,515,507,502,507,515,516,507,502,507,515,515,507,503,507,515,516,507,502,507,515,515,507,503,507,515,516,507,503,507,515,515,507,503,507,515,516,507,502,507,515,515,507,503,507,515,516,507,503,507,515,516,507,503,507,515,516,507,503,507,515,515,507,503,507,515,516,508,503,507,515,516,507,503,507,515,516,507,502,507,515,515,507,503,507,515,516,507,502,507,515,515,507,502,507,515,515,507,502,506,514,515,507,502,506,514,515,507,502,506,514,515,506,502,506,514,515,507,502,506,514,515,506,501,506,514,515,506,501,505,513,513,505,500,505,513,513,505,500,504,512,513,505,500,504,512,513,504,499,503,512,512,504,499,504,512,513,505,499,503,512,513,504,499,504,512,513,505,499,503,511,513,504,499,504,512,513,505,499,503,512,513,505,500,504,512,513,505,499,504,512,513,505,500,504,512,514,505,500,504,512,513,505,500,504,512,514,505,500,504,512,514,506,500,504,513,514,506,500,504,512,514,506,501,505,513,514,506,501,504,512,514,506,501,505,513,514,506,501,505,512,514,506,501,505,513,515,506,501,505,513,514,506,501,505,513,515,507,501,505,513,515,507,501,505,513,515,507,501,505,513,515,507,501,505,514,515,507,501,505,513,515,507,501,505,514,515,507,502,505,513,515,507,502,505,514,516,508,502,505,513,515,507,502,506,514,516,508,502,505,513,515,507,502,506,514,516,508,502,505,513,515,507,502,506,514,516,508,502,505,513,516,508,502,506,514,516,508,502,505,513,516,508,502,506,514,516,508,502,506,513,516,508,502,506,514,516,508,502,506,513,516,508,502,506,514,516,508,502,506,514,516,508,502,506,514,516,509,502,506,514,516,508,502,506,514,517,509,502,506,514,516,508,503,506,514,517,509,502,506,514,516,509,503,506,514,517,509,503,506,514,516,509,503,506,514,517,509,503,506,514,516,509,503,506,514,517,509,503,506,514,516,509,503,506,514,517,509,503,506,514,516,509,503,506,514,517,509,503,506,514,517,509,503,506,514,517,509,503,506,514,517,509,503,506,514,517,510,503,506,514,517,509,503,506,514,517,510,503,506,514,517,509,503,506,514,517,510,503,506,514,517,510,503,506,514,517,510,503,506,514,517,510,503,506,514,517,510,503,506,514,517,510,503,506,514,517,510,503,506,514,517,510,503,506,514,517,510,503,506,514,517,510,503,506,514,517,510,503,506,514,517,510,503,506,514,517,510,503,506,514,517,510,503,506,514,518,510,503,506,514,517,510,503,506,514,517,510,503,506,513,517,510,503,506,514,517,510,503,506,514,517,510,503,506,514,517,510,503,506,514,517,510,503,506,514,518,510,503,506,513,517,510,503,506,514,517,510,503,506,513,517,510,503,506,514,517,510,503,506,513,517,510,503,506,514,518,511,503,506,513,517,510,503,506,514,517,510,503,505,513,517,510,503,506,514,517,510,503,505,513,517,510,503,506,514,517,510,503,505,513,517,510,503,506,514,517,510,503,505,513,517,511,503,506,513,517,510,503,505,513,517,510,503,505,513,517,510,503,505,513,517,510,503,505,513,517,510,503,505,513,517,510,503,505,513,517,510,502,505,513,517,510,503,505,513,517,510,502,504,512,517,510,502,505,513,517,510,502,504,512,516,510,502,505,513,517,510,502,504,512,516,510,502,505,513,517,510,502,504,513,517,510,502,505,513,517,510,502,504,513,517,510,502,505,513,517,510,502,504,513,517,510,503,505,513,517,511,503,505,513,517,510,502,505,513,518,511,503,504,513,517,511,503,505,513,518,511,502,504,513,517,511,503,505,513,518,511,503,504,513,517,511,503,505,513,518,511,503,504,513,517,511,503,505,513,518,511,503,504,513,517,511,503,505,513,518,511,503,504,513,518,511,503,505,513,518,511,503,504,513,518,511,503,505,513,518,511,503,504,512,517,511,503,505,513,518,511,503,504,512,517,511,503,505,513,518,511,503,504,512,517,511,503,504,513,518,511,503,504,512,517,511,503,504,512,518,511,503,504,512,517,511,503,504,512,517,511,503,504,512,517,511,503,504,512,518,511,503,504,512,517,511,503,504,512,518,511,503,504,512,517,511,503,504,512,518,512,503,504,512,517,512,503,504,512,518,512,503,504,512,517,512,503,504,512,518,512,503,504,512,517,512,503,504,512,518,512,503,504,512,517,512,503,504,512,518,512,503,504,512,517,512,503,504,512,518,512,503,504,512,517,512,503,504,512,518,512,503,504,512,517,512,503,504,512,518,512,503,504,512,517,512,503,504,512,518,512,503,504,512,517,512,504,504,512,518,512,503,504,512,517,512,503,504,512,518,512,503,504,512,517,512,504,504,512,518,512,503,504,512,517,512,504,504,512,518,512,503,504,512,517,512,504,504,512,518,512,504,504,512,517,512,504,504,512,518,512,504,504,512,518,512,504,504,512,518,512,504,504,512,517,512,504,504,512,518,513,504,504,512,517,512,504,504,512,518,513,504,504,512,517,512,504,504,512,518,512,504,504,511,517,512,504,504,512,518,513,504,504,511,517,512,504,504,512,518,513,504,504,511,517,512,504,504,512,518,513,504,504,511,517,512,504,504,512,518,513,504,504,511,517,513,504,504,512,518,513,504,504,511,517,512,504,504,512,518,513,504,503,511,517,513,504,504,512,518,513,504,503,511,517,513,504,504,511,517,513,503,503,511,517,512,503,503,511,517,513,504,503,511,517,512,504,503,511,517,513,504,503,511,517,512,504,503,511,517,513,504,503,511,517,512,503,503,511,517,513,504,503,510,517,513,504,503,511,517,513,504,503,510,517,513,504,503,511,517,513,504,503,510,517,513,504,503,511,517,512,503,503,510,517,513,504,503,511,517,513,504,503,510,517,513,504,503,511,517,513,504,503,510,517,513,504,503,511,517,513,504,503,510,517,513,504,503,511,517,513,504,503,510,517,513,504,503,511,517,513,504,503,510,517,513,504,503,511,517,513,504,503,510,517,513,504,503,511,517,513,504,503,510,517,513,504,503,511,517,513,504,503,510,517,513,504,503,510,517,513,504,503,510,517,513,504,503,510,517,513,504,502,510,516,513,504,503,510,517,513,504,502,509,516,513,504,503,510,517,513,504,502,509,516,513,504,503,510,517,513,504,502,509,516,513,504,502,510,517,513,504,502,509,516,513,504,503,510,517,513,504,502,509,516,513,504,503,510,517,513,504,502,509,516,513,504,503,510,517,513,504,502,509,516,513,504,503,510,517,514,504,502,509,516,513,504,503,510,517,513,504,502,509,516,513,504,502,510,517,513,504,502,509,516,513,504,503,509,517,513,504,502,509,516,513,504,502,509,517,514,504,502,509,516,513,504,502,509,517,514,504,502,509,516,514,504,502,509,517,514,504,502,509,516,513,504,502,509,517,514,504,502,509,516,514,504,502,509,516,514,504,502,509,516,514,504,502,509,517,514,504,502,509,516,514,504,502,509,516,514,504,502,509,516,514,504,502,509,516,514,504,502,509,516,514,504,502,509,516,514,504,502,508,516,514,505,502,509,517,514,504,502,508,516,514,505,502,509,517,514,505,502,508,516,514,505,502,509,516,514,505,502,508,516,514,505,502,509,516,514,505,502,508,516,514,505,502,509,516,514,505,502,508,516,514,505,502,509,516,514,505,502,508,516,514,505,502,509,516,514,505,502,508,516,514,505,502,509,517,514,505,502,508,516,514,505,502,509,516,514,505,502,508,516,514,505,502,509,516,515,505,502,508,516,514,505,502,509,516,515,505,502,508,516,514,505,502,509,516,515,505,502,508,516,514,505,502,509,516,515,505,502,508,516,514,505,502,509,516,515,505,502,508,516,515,506,502,508,516,515,505,502,508,516,515,506,502,508,516,515,506,502,508,516,515,506,502,508,516,515,506,502,508,516,515,506,502,508,516,515,506,502,508,516,515,506,503,508,516,515,506,502,508,516,515,506,502,508,516,515,506,502,508,516,515,506,502,508,516,515,506,502,508,516,515,506,502,508,516,515,506,502,508,516,515,506,502,508,516,516,506,502,508,516,515,506,502,508,516,516,506,502,508,516,515,506,502,508,516,516,506,502,508,516,515,506,502,508,516,516,506,502,508,516,515,506,502,508,516,516,506,502,508,516,516,507,502,508,516,516,507,502,508,516,516,507,503,508,516,516,507,502,508,516,516,507,502,508,516,516,507,502,507,516,516,507,503,508,516,516,507,502,507,516,516,507,502,508,516,516,507,502,507,516,516,507,503,508,516,516,507,502,507,516,516,507,502,508,516,516,507,502,507,515,516,507,502,508,516,516,507,502,507,515,516,507,502,508,516,516,507,502,507,515,516,507,502,507,516,516,507,502,507,515,516,507,502,507,516,516,507,502,507,515,516,507,502,507,516,516,507,502,507,515,516,507,502,507,516,516,507,502,507,515,516,507,502,507,516,516,507,502,507,515,516,507,502,507,516,516,507,502,507,515,516,508,503,507,516,516,507,502,507,515,516,508,503,507,516,517,508,502,507,515,516,508,502,507,515,516,507,502,507,515,516,508,502,507,515,516,507,502,506,515,516,508,502,507,515,516,508,502,506,515,516,508,502,507,515,516,507,502,506,515,516,508,502,507,515,516,507,502,506,514,516,507,502,506,514,516,507,501,506,514,516,507,502,506,514,516,507,501,505,514,516,507,502,506,515,516,508,502,506,514,516,508,502,506,515,516,508,502,506,514,516,507,502,506,514,516,507,501,505,513,515,507,502,506,514,516,507,501,505,513,515,507,501,505,514,515,507,501,505,513,515,507,502,506,514,516,507,501,505,514,516,508,502,505,514,516,507,501,505,513,515,507,501,505,513,515,507,501,504,512,515,507,501,504,513,515,507,500,504,512,515,507,502,505,512,512,504,501,508,517,517,505,498,503,513,516,507,500,504,513,515,507,500,503,512,515,506,499,503,512,514,506,499,503,512,515,506,499,503,512,514,506,500,504,513,515,506,499,503,512,515,506,500,504,513,515,506,500,503,512,515,507,500,504,513,516,507,500,504,513,516,507,500,504,513,516,508,500,504,513,516,508,501,505,514,517,508,501,504,513,517,508,501,505,514,517,508,501,504,514,517,509,502,505,514,517,509,502,505,514,517,509,502,506,515,518,509,502,505,514,518,509,502,506,515,518,509,502,505,514,518,509,502,505,514,518,509,502,505,514,518,510,502,506,515,518,510,503,506,515,518,510,503,506,515,518,509,502,505,514,517,509,502,505,514,518,509,502,505,514,518,510,503,506,515,519,511,503,506,515,519,511,503,506,515,519,510,502,505,514,518,510,502,505,514,517,509,501,504,512,517,508,501,503,512,516,508,500,503,512,516,508,500,503,512,516,508,500,502,511,515,507,500,502,512,515,507,499,502,511,515,507,499,502,511,515,506,498,501,510,514,506,499,502,511,515,507,499,501,511,515,507,499,502,511,515,507,499,502,511,515,507,499,502,512,516,507,499,502,511,516,508,500,502,512,516,508,499,502,511,516,508,500,503,512,516,508,500,502,512,516,508,500,502,512,516,508,499,502,511,516,508,500,503,512,517,508,499,501,511,516,509,500,502,512,518,510,499,498,507,514,509,502,503,511,516,509,501,502,510,515,509,502,504,512,516,509,501,503,512,516,510,502,503,511,515,508,500,502,511,516,510,502,503,511,516,510,502,503,512,516,510,503,504,512,516,510,502,504,512,517,511,503,504,512,517,510,502,504,512,517,511,503,505,512,517,511,503,504,512,517,512,504,505,513,518,512,504,505,512,517,512,504,505,513,518,512,504,505,512,517,511,503,505,512,517,511,503,504,511,516,511,502,503,511,516,510,502,502,510,515,510,502,502,509,515,509,501,501,509,514,509,501,502,509,514,509,501,501,508,514,509,501,501,508,513,509,500,501,508,513,509,501,502,509,514,509,501,501,508,514,509,501,502,509,514,509,501,501,508,513,509,501,502,509,514,509,500,501,508,513,509,501,502,509,514,509,501,501,508,514,509,501,502,509,514,510,501,502,509,514,510,502,502,509,514,510,502,502,509,514,510,502,502,509,515,510,502,502,509,514,511,502,503,509,515,510,502,502,509,515,511,503,503,510,515,511,502,502,509,515,511,503,503,510,515,511,502,502,509,515,511,503,503,510,515,511,503,502,509,515,511,503,503,510,515,511,503,502,509,515,511,503,503,510,516,511,503,503,510,515,512,503,503,510,516,512,503,503,510,515,512,503,503,510,516,512,503,503,510,515,512,504,503,510,516,512,503,503,510,516,512,504,503,510,516,512,503,503,510,516,512,504,503,510,516,512,504,503,510,515,512,504,503,510,516,512,504,503,510,516,512,504,503,510,516,512,504,503,510,516,512,504,503,510,516,512,503,503,509,516,512,504,503,510,516,512,504,503,510,516,512,504,503,510,516,513,504,503,510,516,513,505,504,511,517,513,505,504,510,517,513,505,504,511,517,513,505,504,510,517,514,505,504,511,517,513,505,504,510,517,514,505,504,511,517,513,505,504,510,517,514,505,504,511,517,514,505,504,510,517,514,505,504,511,517,514,505,504,511,517,514,506,505,511,517,514,506,504,510,517,514,506,505,511,517,514,505,504,510,517,514,506,505,511,517,514,506,504,510,517,514,506,505,511,517,514,506,504,510,517,514,506,505,511,517,514,506,504,510,517,515,506,505,511,517,515,506,505,511,517,515,506,505,511,517,514,506,505,511,517,515,506,505,511,517,515,506,504,511,517,515,506,505,511,517,515,506,505,511,517,515,507,505,511,517,515,506,504,510,517,515,507,505,511,517,515,506,504,510,517,515,507,505,511,517,515,506,504,510,517,515,507,505,511,517,515,507,504,510,517,515,507,505,511,517,515,506,504,510,517,515,507,505,511,518,515,507,504,510,517,515,507,505,510,517,515,506,504,510,517,516,507,505,511,517,515,507,504,510,517,516,508,505,511,518,516,507,505,510,517,516,508,505,511,517,515,507,504,510,517,515,507,505,510,517,515,507,504,510,517,515,507,505,510,517,515,506,503,509,516,515,507,504,510,517,515,506,504,509,516,515,507,504,509,516,515,507,504,509,516,515,507,504,509,516,515,506,503,509,516,515,507,504,509,516,515,506,504,509,516,515,507,504,509,516,514,506,503,509,516,515,507,504,509,516,515,506,503,508,516,515,507,504,509,516,515,507,503,509,516,515,507,504,509,516,515,507,504,509,516,515,507,504,509,516,515,507,504,509,516,515,507,504,510,517,515,507,504,509,516,515,507,504,509,517,516,507,504,509,516,515,507,504,509,516,516,507,504,509,516,516,508,504,509,516,516,507,504,509,516,516,508,505,510,517,516,508,504,509,516,516,508,505,510,517,516,508,504,509,516,516,508,505,509,516,516,507,504,509,516,516,508,504,509,516,515,507,504,508,516,516,508,504,509,516,516,507,504,508,516,516,508,504,509,516,516,508,504,508,516,516,508,504,509,516,515,507,504,508,516,516,508,504,509,516,515,507,503,508,516,516,508,504,509,516,516,507,503,508,516,516,508,504,508,516,516,507,503,508,515,516,508,504,508,515,515,507,503,507,515,515,508,504,508,515,515,507,503,507,515,515,507,503,508,515,515,507,502,507,514,514,507,503,508,515,515,507,503,507,515,515,507,503,508,515,515,507,503,507,515,515,507,503,508,515,515,507,503,507,515,515,508,503,508,515,515,507,503,507,515,516,508,503,507,515,515,507,503,507,514,515,508,503,507,514,515,507,503,507,514,515,508,503,508,515,515,507,503,507,514,515,508,503,507,515,515,507,503,507,514,515,508,503,507,515,515,507,503,507,514,516,508,503,507,514,515,507,503,507,514,516,508,503,507,514,515,507,503,506,514,515,508,503,507,514,515,507,503,507,514,515,508,503,507,514,515,508,503,507,514,515,508,503,507,514,515,507,502,506,514,515,508,503,507,514,515,507,502,506,514,515,508,503,507,514,515,508,503,506,514,515,508,503,507,514,515,508,502,506,514,515,508,503,507,514,515,507,502,506,514,516,508,503,507,514,515,508,502,506,514,515,508,503,507,514,515,508,502,506,514,516,508,503,506,514,515,508,502,506,514,516,508,503,507,514,515,508,502,506,514,516,508,503,506,514,515,508,502,506,514,516,508,503,506,514,516,508,502,506,514,516,508,503,506,514,516,508,502,506,514,516,508,503,506,514,516,508,502,506,513,516,508,503,506,514,516,508,502,506,513,516,509,503,506,513,516,508,502,506,513,516,509,503,506,514,516,508,502,506,513,516,509,503,506,513,516,508,502,506,513,516,509,503,506,513,516,509,503,506,513,516,509,503,506,513,516,509,503,506,513,516,509,503,506,513,516,509,503,506,513,516,509,503,506,513,516,509,503,506,513,516,509,503,506,514,516,509,503,505,513,516,509,503,506,513,516,509,503,506,513,516,509,503,506,513,516,509,503,506,513,516,510,503,506,513,516,509,503,505,513,516,510,503,506,513,516,509,503,506,513,516,510,503,506,513,516,509,503,505,513,516,510,503,506,513,516,509,503,505,513,516,510,503,506,513,516,509,503,505,513,516,510,503,506,513,516,509,502,505,512,516,510,503,506,513,516,510,503,505,512,516,510,504,506,513,516,509,503,506,513,516,509,503,506,513,516,509,503,506,513,516,509,503,506,514,516,509,503,506,513,516,508,501,505,513,517,509,502,505,513,517,510,503,505,513,517,509,502,505,513,517,510,503,505,513,517,510,503,505,512,517,510,504,506,513,517,510,503,505,513,517,510,504,507,514,516,508,501,504,513,518,510,503,505,513,517,510,502,504,512,517,512,505,506,513,516,509,502,505,514,518,511,503,505,513,517,510,503,505,513,517,510,503,505,513,517,510,503,505,513,517,510,503,505,513,517,510,503,505,513,517,511,503,505,513,517,510,503,505,513,517,511,503,505,513,518,511,502,503,511,517,512,504,505,512,517,511,503,505,512,517,511,504,505,512,516,510,503,505,512,517,511,504,505,512,516,510,503,505,512,516,511,504,505,512,517,511,503,505,512,517,511,504,505,512,516,511,503,505,512,516,511,503,505,512,516,511,503,505,512,517,511,504,505,512,517,511,503,505,512,517,511,504,505,512,517,511,503,505,512,517,511,504,505,512,517,511,503,505,512,517,511,504,505,512,517,511,503,505,512,517,512,504,505,512,517,511,503,504,512,517,512,504,505,512,517,511,504,504,512,517,512,504,505,512,517,511,504,504,512,517,512,504,505,512,517,511,504,504,512,517,512,504,505,512,517,511,503,504,511,516,512,504,505,512,516,511,503,504,511,517,512,504,505,511,516,512,504,504,511,517,512,504,505,512,516,512,504,504,511,516,512,504,505,512,516,512,504,504,511,517,512,504,505,511,516,512,504,504,511,517,512,504,504,511,516,511,503,504,511,516,512,504,505,511,517,512,504,504,511,516,512,504,504,511,516,512,504,504,511,517,512,504,504,511,516,512,504,504,511,517,512,505,505,511,517,512,504,504,511,517,512,505,505,511,516,512,504,504,511,516,512,504,504,511,516,512,504,504,511,516,512,504,504,511,516,512,504,504,510,516,512,504,504,511,516,512,504,503,510,516,512,504,504,511,516,512,504,503,510,516,512,504,504,511,516,512,504,504,511,516,513,505,504,511,516,512,504,504,510,516,512,505,504,511,516,512,504,504,511,516,513,505,504,511,516,512,504,504,510,516,513,505,504,511,516,512,504,504,510,517,513,505,505,511,516,513,504,504,510,516,513,505,504,511,516,513,505,504,511,517,513,505,504,510,516,513,504,504,510,516,513,505,504,510,516,513,505,504,510,517,513,505,505,511,516,513,505,504,510,516,513,505,504,510,516,513,504,504,510,516,513,505,504,511,516,513,505,504,510,516,513,505,504,510,516,513,505,504,510,517,513,505,504,510,516,513,505,504,510,516,513,505,504,510,516,513,505,504,510,516,513,505,504,510,516,513,505,504,510,516,513,505,504,510,516,513,505,504,510,516,513,505,504,510,516,513,505,504,510,516,513,505,504,510,516,513,505,504,510,516,513,505,504,510,516,513,505,504,510,516,514,505,504,510,516,513,505,503,510,516,513,505,504,510,516,513,505,503,510,516,514,505,504,510,516,513,505,503,510,516,514,505,504,509,516,513,505,503,509,516,514,506,504,510,516,513,505,503,510,516,514,506,504,510,516,514,505,503,509,516,514,506,504,510,516,514,505,503,509,516,514,506,504,510,516,513,505,503,509,516,514,506,504,510,516,514,505,503,509,516,514,506,504,510,516,514,505,503,509,516,514,506,504,509,516,514,505,503,509,516,514,506,504,509,516,514,505,503,509,516,514,506,504,509,516,514,505,503,509,516,514,506,504,509,516,514,506,503,509,516,514,506,504,509,515,513,505,503,509,516,514,506,504,509,516,514,505,503,509,516,514,506,504,509,516,514,506,503,509,516,514,506,504,509,516,514,505,503,509,516,514,506,504,509,516,514,506,503,509,516,514,506,504,509,516,514,506,503,509,515,514,506,504,509,516,514,505,503,509,516,514,506,504,509,515,514,505,503,508,516,514,506,504,509,515,514,506,503,508,516,514,506,503,509,515,514,506,503,508,515,514,506,503,509,515,514,506,503,508,515,514,506,503,508,515,514,506,503,508,515,514,506,503,508,515,514,506,503,508,515,514,506,503,508,515,514,506,503,508,515,514,506,503,508,515,514,506,503,508,515,514,506,503,508,515,514,506,503,508,515,515,507,503,508,515,514,506,503,508,515,514,507,504,509,515,514,506,503,508,515,515,506,503,508,515,514,506,503,508,515,515,507,503,508,515,514,506,503,508,515,515,507,503,508,515,514,506,503,508,515,515,507,504,508,515,514,506,503,508,515,515,507,503,508,515,514,506,503,508,515,515,507,503,508,515,514,506,503,508,515,515,507,503,508,515,515,507,503,508,515,515,507,503,508,515,514,506,503,508,515,515,507,503,508,515,514,506,503,508,515,515,507,503,508,515,515,506,503,508,515,515,507,503,508,515,515,507,503,508,515,515,507,503,508,515,515,507,503,508,515,515,507,503,508,515,515,507,503,508,515,515,507,503,508,515,515,507,503,508,515,515,507,503,508,515,515,507,503,508,515,515,507,503,508,515,514,506,503,508,515,515,507,503,508,515,515,507,503,508,515,515,508,504,508,515,515,507,503,507,515,515,507,503,508,515,515,507,503,507,515,515,507,503,508,515,515,507,503,507,515,515,507,503,508,515,515,507,503,508,515,515,507,503,508,515,515,507,503,507,515,515,508,503,508,515,515,507,503,507,515,515,507,503,507,515,515,507,503,507,515,515,508,503,507,515,515,507,503,507,515,515,508,503,507,515,515,507,503,507,515,515,508,503,507,515,515,507,503,507,514,515,507,503,507,514,515,507,503,507,514,515,508,503,507,515,515,507,503,507,515,515,508,503,507,514,515,507,503,507,515,516,508,503,507,515,515,507,503,507,515,516,508,503,507,515,515,507,503,507,515,516,508,503,507,514,515,507,503,507,515,516,508,503,507,514,515,507,503,507,514,516,508,503,507,514,515,508,503,507,514,516,508,503,507,514,515,507,503,507,514,516,508,503,507,514,515,508,503,507,514,516,508,503,507,514,515,508,503,507,514,516,508,503,507,514,515,508,503,507,514,516,508,503,507,514,515,508,503,507,514,516,508,503,507,514,515,508,503,507,514,516,508,503,507,514,515,508,503,506,514,516,508,503,507,514,515,508,503,506,514,516,508,503,507,514,515,508,503,506,514,516,508,503,507,514,516,508,502,506,514,516,509,504,507,514,516,508,503,506,514,516,508,503,507,514,515,508,503,506,514,516,508,503,507,514,515,508,503,506,514,516,508,503,506,514,515,508,502,506,514,516,509,503,507,514,515,508,503,506,514,516,508,503,506,514,515,508,503,506,514,516,509,503,506,514,515,508,503,506,514,516,509,503,506,514,515,508,503,506,514,516,509,503,506,513,515,508,503,506,514,516,509,503,506,513,515,508,503,506,514,516,509,503,506,513,515,508,503,506,513,516,509,503,506,513,516,508,503,506,513,516,509,503,506,513,515,508,503,506,513,516,509,503,506,513,515,508,503,506,513,516,509,503,506,513,516,508,502,506,513,516,509,503,506,513,516,508,503,506,513,516,509,503,506,513,516,508,503,506,513,516,509,503,506,513,516,509,503,506,513,516,509,503,506,513,516,509,503,506,513,516,509,503,506,513,516,509,503,506,513,516,509,503,506,513,516,509,503,506,513,516,509,503,506,513,516,509,503,506,513,516,509,503,506,513,516,509,503,506,513,516,509,503,506,513,516,509,503,506,513,516,509,503,506,513,516,509,503,506,513,516,509,503,506,513,516,509,503,506,513,516,509,503,506,513,516,509,503,506,513,516,509,503,506,513,516,509,503,505,513,516,510,503,506,513,516,509,503,505,513,516,509,503,506,513,516,509,503,506,513,516,510,503,506,513,516,509,503,505,513,516,510,503,506,513,516,509,503,505,513,516,510,503,506,513,516,509,503,505,513,516,510,503,506,513,516,509,503,505,513,516,510,503,506,513,516,509,503,505,513,516,510,503,506,513,516,509,503,505,513,517,510,503,506,513,516,509,503,505,513,516,510,503,505,513,516,509,503,505,513,516,510,503,505,513,516,510,503,505,513,516,510,503,505,513,516,509,503,505,513,516,510,503,505,512,516,509,503,505,512,516,510,503,505,512,516,510,503,505,513,516,510,504,506,512,516,510,503,505,512,516,510,503,505,512,516,510,503,505,513,516,510,503,505,512,516,510,503,505,512,516,510,503,505,512,516,510,503,505,512,516,510,503,505,512,516,510,503,505,512,516,510,503,505,512,516,510,503,505,512,516,510,503,505,512,516,510,503,505,512,516,510,504,505,512,516,510,503,505,512,516,510,504,505,512,516,510,503,505,512,516,511,504,505,512,516,510,503,505,512,516,511,504,505,512,516,510,503,505,512,516,511,504,505,512,516,510,503,505,512,517,511,504,505,512,516,510,503,505,512,517,511,504,505,512,516,510,503,505,512,517,511,504,505,512,516,510,503,505,512,517,511,504,505,512,516,510,503,505,512,516,511,504,505,512,516,510,503,505,512,516,511,504,505,512,516,510,503,505,512,516,511,504,505,512,516,510,503,505,512,516,511,504,505,512,516,511,503,505,512,517,511,504,505,512,516,510,503,504,512,516,511,504,505,512,516,510,503,505,512,517,511,504,505,512,516,511,503,505,512,517,511,504,505,512,516,511,503,505,512,517,511,504,505,512,516,511,503,505,512,516,511,504,505,512,516,511,503,505,512,516,511,504,505,512,516,511,503,505,512,517,511,504,505,512,516,511,503,504,512,516,511,504,505,512,516,511,503,504,512,516,511,504,505,512,516,511,503,504,512,516,511,504,505,512,516,511,503,504,512,516,511,504,505,512,516,511,503,504,512,516,511,504,504,511,516,511,503,504,512,516,511,504,505,512,516,511,503,504,512,516,511,504,504,511,516,511,503,504,512,516,512,504,504,511,516,511,503,504,511,516,512,504,504,511,516,511,503,504,511,516,511,504,504,511,516,511,503,504,511,516,512,504,504,511,516,511,503,504,511,516,512,504,504,511,516,511,503,504,511,517,512,504,504,511,516,511,503,504,511,516,512,504,504,511,516,511,503,504,511,517,512,504,504,511,516,511,503,504,511,516,512,504,504,511,516,511,503,504,511,517,512,504,504,511,516,512,503,504,511,517,512,504,504,511,516,511,503,504,511,517,512,504,504,511,516,512,504,504,511,517,512,504,504,511,516,512,504,504,511,517,512,504,504,511,516,512,504,504,511,517,512,504,504,511,516,512,504,504,511,517,512,504,504,511,516,512,504,504,511,516,512,504,504,511,516,512,504,504,511,517,512,504,504,511,516,512,504,504,511,516,512,504,504,511,516,512,504,504,511,517,512,504,504,511,516,512,504,504,511,516,512,504,504,511,516,512,504,504,511,516,512,504,504,511,516,512,504,504,511,516,512,504,504,511,516,512,504,504,511,516,512,504,504,511,516,512,504,504,511,516,512,504,504,511,516,512,504,504,511,516,512,504,504,510,516,512,504,504,511,516,513,505,504,511,516,512,504,504,511,516,513,504,504,510,516,512,504,504,511,517,513,505,504,510,516,512,504,504,511,516,513,505,504,511,516,512,504,504,511,517,513,505,504,510,516,512,504,504,511,517,513,505,504,510,516,512,504,504,510,517,513,505,504,510,516,512,504,504,510,516,513,505,504,510,516,513,504,504,510,516,513,505,504,510,516,512,504,504,510,516,513,505,504,511,516,513,504,504,510,516,513,505,504,510,516,513,504,504,510,516,513,505,504,510,516,513,505,504,510,516,513,505,504,510,516,513,504,504,510,516,513,505,504,510,516,513,505,504,510,516,513,505,504,510,516,513,504,504,510,516,513,505,504,510,516,513,505,504,510,516,513,505,504,510,516,513,505,504,510,516,513,505,504,510,516,513,505,504,510,516,513,505,504,510,516,513,505,504,510,516,513,505,504,510,516,513,505,504,510,516,513,505,504,510,516,513,505,504,510,516,513,505,504,510,516,513,505,504,510,516,514,505,504,510,516,513,505,504,510,516,514,505,504,510,516,513,505,504,510,516,514,505,504,510,516,513,505,503,510,516,513,505,504,510,516,513,505,504,510,516,514,505,504,510,516,513,505,503,510,516,514,506,504,510,516,513,505,503,510,516,514,505,504,510,516,513,505,504,510,516,514,506,504,510,516,513,505,504,510,516,514,506,504,510,516,513,505,504,510,516,514,506,504,509,516,513,505,503,510,516,514,506,504,509,516,513,505,503,509,516,514,506,504,509,516,513,505,503,509,516,514,506,504,509,516,513,505,503,509,516,514,506,504,509,516,513,505,503,509,516,514,506,504,510,516,514,505,504,510,516,514,506,504,509,516,514,505,503,509,516,514,506,504,509,516,514,505,503,509,516,514,506,504,509,516,514,506,504,509,516,514,506,504,509,516,514,505,503,509,516,514,506,504,509,516,513,505,503,509,516,514,506,504,509,516,514,505,503,509,516,514,506,504,509,516,514,506,503,509,516,514,506,504,509,516,514,506,503,509,516,514,506,504,509,516,514,506,503,509,516,514,506,504,509,516,514,506,503,509,516,514,506,504,509,516,514,506,503,509,516,514,506,503,509,515,514,506,503,509,516,514,506,504,509,515,514,506,503,509,516,514,506,504,509,515,514,506,503,509,516,514,506,504,509,516,514,506,503,509,515,514,506,504,509,515,513,506,505,509,514,511,504,505,512,519,515,505,502,509,517,515,506,503,509,516,514,506,503,509,517,515,506,503,509,516,514,505,503,509,516,515,506,503,509,516,514,505,503,509,517,515,506,503,509,516,514,506,503,509,516,515,506,503,509,516,514,506,503,509,516,515,506,503,509,516,514,505,503,509,516,515,506,503,509,516,514,505,503,509,516,515,506,503,509,516,514,506,503,509,516,515,506,503,509,516,514,506,503,509,516,515,506,503,509,516,514,505,503,509,516,515,506,503,509,516,515,506,503,508,516,515,506,503,508,516,515,506,503,508,516,515,506,503,508,516,515,506,503,508,516,515,506,503,508,516,515,506,503,508,516,515,506,503,508,516,514,506,502,508,516,515,506,503,508,516,515,506,502,508,516,515,506,503,508,516,515,506,503,508,516,515,506,503,508,516,515,506,503,508,516,515,507,503,508,516,515,506,503,508,516,516,507,502,507,514,514,506,502,507,515,515,506,503,507,515,514,506,503,508,516,515,507,503,508,515,514,506,503,508,515,515,507,503,508,515,515,506,503,508,515,515,507,503,508,515,515,506,503,508,515,515,507,503,508,515,515,507,503,508,515,515,507,503,508,515,515,507,503,508,515,515,507,503,507,515,514,506,503,508,515,515,507,503,508,515,514,507,504,508,514,513,506,504,511,518,516,506,502,508,516,516,507,503,508,515,515,506,502,507,515,515,507,503,507,515,515,506,502,507,515,515,507,502,507,515,515,506,502,507,515,515,506,502,507,515,514,506,502,507,515,515,506,502,506,514,514,505,501,506,514,514,505,501,505,513,513,504,500,505,513,513,504,500,504,512,512,503,499,504,512,512,504,499,504,512,512,503,499,503,512,512,503,498,503,511,511,503,498,503,511,512,503,498,503,511,511,502,498,503,511,512,503,498,503,511,511,502,498,503,511,511,503,498,503,511,511,502,498,503,511,512,503,498,503,511,512,503,498,503,511,512,503,499,504,512,512,503,499,503,512,512,504,499,504,512,512,504,499,504,512,512,504,500,504,512,512,504,500,504,512,513,505,500,505,512,513,504,500,505,513,513,505,500,505,512,513,505,500,505,513,514,506,501,505,513,514,505,501,505,513,514,506,501,506,513,514,506,501,506,514,515,506,501,506,514,514,506,501,506,514,515,507,502,506,514,515,507,502,506,514,515,507,502,506,514,515,507,502,506,515,516,508,502,507,514,515,507,502,507,515,516,508,502,507,515,516,508,503,507,515,516,508,503,507,515,516,507,503,507,515,516,508,503,507,515,516,508,503,507,515,517,508,503,507,515,516,508,503,507,515,517,508,503,507,515,516,508,503,507,515,517,509,503,507,515,516,508,503,507,515,517,509,503,507,515,516,508,503,507,515,517,509,503,507,515,517,508,503,507,515,517,509,503,507,515,517,509,503,507,515,517,509,504,507,515,517,509,503,507,515,517,509,504,507,515,517,509,503,507,516,517,509,504,507,515,517,509,503,507,516,517,509,504,507,515,517,509,503,507,515,517,509,504,507,515,517,509,504,507,516,518,510,504,507,515,517,509,504,507,516,518,510,504,507,515,517,509,504,508,516,518,510,504,508,515,517,510,504,508,516,518,510,504,508,515,518,510,504,508,516,518,510,504,508,516,518,510,504,508,516,518,510,504,508,515,518,510,504,508,516,518,510,504,507,515,517,510,504,508,516,518,510,504,507,515,517,510,504,507,515,518,510,504,507,515,517,510,504,507,515,518,510,504,507,515,517,510,504,507,515,518,510,504,507,515,517,510,504,507,515,518,510,504,507,515,517,510,504,507,515,518,510,504,507,515,517,510,503,507,515,517,510,503,506,514,517,509,503,506,515,517,510,504,507,514,517,510,503,507,514,517,510,503,506,514,517,510,503,507,515,517,510,503,506,514,517,509,503,506,514,518,510,503,506,514,517,509,503,506,514,517,510,503,506,514,517,509,503,506,514,517,510,503,506,514,517,510,503,506,514,517,510,503,506,514,517,510,503,506,514,517,510,503,506,514,517,510,503,506,514,517,510,503,506,514,517,510,503,506,514,517,510,503,506,514,517,511,503,502,509,517,520,520,520,518,512,503,502,509,516,517,508,503,508,515,516,508,503,508,516,516,508,503,507,515,516,508,503,508,516,516,508,503,507,515,516,508,503,508,516,516,508,503,507,515,516,508,503,508,516,517,508,503,507,515,516,508,503,508,515,516,508,503,507,515,516,508,503,507,516,517,508,503,507,515,516,508,503,507,515,517,508,503,507,515,516,508,503,507,515,517,508,503,507,515,516,508,503,507,516,517,508,503,507,515,516,508,503,507,515,517,508,503,507,515,516,508,503,507,515,517,508,503,507,515,516,508,503,507,515,517,509,503,507,515,516,508,503,507,515,517,509,503,507,515,516,508,503,507,515,517,509,503,507,515,516,508,503,507,515,517,509,503,507,515,516,508,503,507,515,517,509,503,507,515,516,508,503,507,515,517,509,503,507,515,516,508,503,507,515,517,509,503,507,514,516,508,503,507,515,517,509,503,507,514,516,508,503,507,515,516,508,503,506,514,516,508,503,507,515,517,509,503,507,514,516,508,503,507,515,517,509,503,507,515,517,509,503,507,515,517,509,504,507,515,517,509,504,507,515,517,510,504,507,515,517,509,503,507,515,517,510,504,507,515,517,509,504,507,515,517,509,503,507,515,517,509,503,507,515,517,509,503,507,515,517,509,503,507,515,517,510,504,507,515,517,509,503,507,515,517,510,504,507,515,517,509,503,507,515,517,510,503,507,514,517,509,503,507,515,517,510,503,507,514,517,509,503,507,515,517,510,503,506,514,517,509,503,506,514,517,509,503,506,514,517,509,503,506,514,517,510,503,506,514,517,509,503,506,514,517,510,503,506,514,517,509,503,506,514,517,510,503,506,514,517,509,503,506,514,517,510,503,506,514,517,509,503,506,514,517,510,503,506,514,516,509,503,506,514,517,510,503,506,514,517,509,503,506,514,517,510,503,506,514,517,509,503,506,514,517,510,503,506,514,517,510,503,506,514,517,510,503,506,513,517,509,503,506,514,517,510,503,506,513,517,510,503,506,514,517,510,503,506,513,517,510,503,506,514,517,510,503,506,514,517,510,503,506,514,517,510,503,506,513,517,510,503,506,514,517,510,503,506,513,517,510,503,506,514,517,510,503,506,513,517,510,503,506,514,517,510,503,506,513,517,510,503,506,513,517,510,503,505,513,517,510,503,506,514,517,510,503,505,513,517,510,503,506,513,517,510,503,505,513,517,510,503,505,513,517,510,503,505,513,517,510,503,506,513,517,510,503,505,513,517,510,503,505,513,517,510,503,505,513,517,510,503,505,513,517,510,503,505,513,517,510,503,505,513,517,510,503,505,512,517,510,503,505,513,517,510,503,505,512,516,510,503,505,513,517,510,503,505,512,517,510,503,506,513,517,510,503,505,512,516,510,503,505,513,517,510,503,505,512,516,510,503,505,513,517,510,503,505,512,517,510,503,505,513,517,510,503,505,512,516,510,503,505,513,517,511,503,505,512,516,510,503,505,512,517,511,503,505,512,517,510,503,505,513,517,511,503,505,512,517,510,503,505,512,517,511,503,505,512,516,510,503,505,513,517,511,503,505,512,516,510,503,505,513,517,511,503,505,512,517,511,503,505,512,517,511,503,505,512,517,511,503,505,512,517,511,503,505,512,517,511,503,505,512,517,511,503,505,512,517,511,503,505,512,517,511,503,505,512,517,511,503,505,512,517,511,503,504,512,516,511,503,505,512,517,511,503,504,512,517,511,503,505,512,517,511,503,504,512,517,511,503,505,512,517,512,503,504,512,516,511,503,505,512,517,512,503,504,512,517,511,503,505,512,517,511,503,504,512,517,511,503,505,512,517,512,503,504,512,517,511,503,504,512,517,512,503,504,512,517,511,503,504,512,517,512,504,504,512,517,511,503,504,512,517,512,503,504,512,517,511,503,504,512,517,512,503,504,512,517,512,503,504,512,517,512,503,504,512,517,512,504,504,512,517,512,504,504,512,517,512,504,504,512,517,512,504,504,512,517,512,504,504,512,517,512,504,504,512,517,512,504,504,512,517,512,504,504,512,517,512,504,504,512,517,512,504,504,511,517,512,504,504,512,517,512,504,504,512,517,512,504,504,512,517,512,504,504,511,517,512,504,504,512,517,512,504,504,511,517,512,504,504,512,517,512,504,504,511,517,512,503,504,511,517,512,504,504,511,517,512,504,504,511,517,512,504,504,511,517,512,504,504,512,517,512,504,504,511,517,512,504,504,512,517,512,504,504,511,517,512,504,504,512,517,513,504,504,511,517,512,504,504,512,518,513,504,504,511,517,512,504,504,511,517,512,504,504,511,517,512,504,504,511,517,513,504,504,511,517,512,504,504,511,517,513,504,504,511,517,512,504,504,511,517,513,504,504,511,517,512,504,504,511,517,513,504,504,511,517,512,504,504,511,517,513,504,504,511,516,512,504,504,511,517,513,504,504,511,517,512,504,504,511,517,513,504,504,511,517,512,504,504,511,517,513,504,504,510,516,512,504,504,511,517,513,504,504,511,517,512,504,504,511,517,513,504,504,510,516,512,504,504,511,517,513,504,504,510,517,513,504,504,511,517,513,504,503,510,516,512,504,503,510,516,512,504,503,510,516,512,504,503,510,516,513,504,503,510,516,512,504,503,510,516,513,504,503,510,516,512,504,503,510,516,513,504,503,510,516,512,504,503,510,516,513,504,503,510,516,512,504,503,510,516,513,504,503,510,516,512,504,503,510,517,513,504,503,510,516,513,504,503,510,517,513,504,503,510,516,513,504,503,510,517,513,504,503,510,516,513,504,503,510,517,513,504,503,510,516,513,504,503,510,517,513,504,503,510,516,513,504,503,510,517,513,505,503,510,516,513,505,503,510,517,514,505,503,510,516,513,505,503,510,517,514,505,503,510,516,513,505,503,510,517,514,505,503,510,516,513,505,503,510,517,514,505,503,509,516,513,505,503,510,517,514,505,503,510,516,513,505,503,510,517,514,505,503,510,516,513,505,503,510,517,514,505,503,509,516,513,505,503,510,517,514,505,503,509,516,513,505,503,510,517,514,505,503,509,516,514,505,503,510,517,514,505,503,509,516,514,505,503,510,517,514,505,503,509,516,514,505,503,510,517,514,505,503,509,516,514,505,503,509,516,514,505,503,509,516,513,505,503,509,516,514,505,503,509,516,514,505,503,509,516,514,505,503,509,516,514,505,503,509,516,514,505,503,509,516,514,505,503,509,516,514,505,503,509,516,514,505,503,509,516,514,505,503,509,516,514,505,503,509,517,515,506,503,509,516,514,505,503,509,516,514,506,503,509,516,514,505,503,509,516,514,505,503,509,516,514,505,503,509,516,514,506,503,509,516,514,505,503,509,516,514,506,503,509,516,514,506,503,509,516,514,505,503,509,516,514,506,503,509,516,515,506,503,509,516,514,506,503,509,516,515,506,503,509,516,514,506,503,509,516,514,506,503,509,516,514,506,503,509,516,515,506,503,509,516,514,506,503,509,516,515,506,503,508,516,514,506,503,509,516,515,506,503,508,516,514,506,503,509,516,515,506,503,508,516,514,506,503,509,516,515,506,503,508,516,514,506,503,509,516,515,506,503,508,516,515,506,503,509,516,515,506,503,508,515,514,506,503,509,516,515,506,503,508,516,515,506,503,509,516,515,506,503,508,516,515,506,503,509,516,515,506,503,508,516,515,506,503,509,516,515,506,503,508,516,515,506,503,508,516,515,506,503,508,516,515,506,503,509,516,515,507,503,508,516,515,506,503,508,516,515,507,503,508,516,515,506,503,508,516,515,507,503,508,516,515,506,503,508,516,515,507,503,508,515,515,506,503,508,516,515,507,503,508,516,515,507,503,508,516,515,507,503,508,515,515,507,503,508,516,516,507,503,508,515,515,507,503,508,516,516,507,503,508,516,515,507,503,508,516,516,507,503,508,515,515,507,503,508,516,516,507,503,508,515,515,507,503,508,516,515,507,503,508,515,515,507,503,508,516,516,507,503,508,515,515,507,503,508,516,516,507,503,508,515,515,507,503,508,516,516,507,503,507,515,515,507,503,508,516,516,507,503,507,515,515,507,503,508,516,516,507,503,507,515,515,507,503,508,515,515,507,502,507,515,515,507,503,507,515,515,507,502,507,515,515,507,503,507,515,515,507,502,507,515,515,507,502,507,515,515,507,502,507,515,515,507,503,507,515,516,507,502,507,515,515,507,503,507,515,516,507,503,507,515,515,507,503,507,515,516,507,502,507,515,515,507,503,507,515,516,507,503,507,515,515,507,503,507,515,516,507,503,507,515,515,507,503,507,515,516,507,502,507,515,515,507,503,507,515,516,507,503,507,515,515,507,503,507,515,516,507,503,507,515,515,507,503,507,515,516,508,503,507,515,516,507,503,507,515,516,508,503,507,515,516,508,503,507,515,516,508,503,507,515,516,507,503,507,515,516,508,503,507,515,516,508,503,507,515,516,508,503,507,515,516,508,503,507,515,516,508,503,507,515,516,508,503,507,515,516,508,503,507,515,516,508,503,507,515,516,508,503,507,514,516,508,503,507,515,516,508,503,507,514,516,508,503,507,515,516,508,503,507,515,516,508,503,507,515,516,508,503,507,515,516,508,503,507,515,516,508,503,506,514,516,508,503,507,515,516,508,503,506,514,516,508,503,507,515,516,508,503,506,514,516,508,503,507,515,516,508,503,506,514,516,508,503,507,515,516,508,503,506,514,516,508,503,507,515,516,508,503,506,514,516,508,503,507,515,517,509,503,506,514,516,508,503,507,515,517,508,503,506,514,516,508,503,507,515,517,508,503,506,514,516,508,503,507,515,517,509,503,506,514,516,508,503,507,515,517,509,503,506,514,516,508,503,506,514,517,509,503,506,514,516,509,503,507,515,517,509,503,506,514,516,508,503,506,514,517,509,503,506,514,516,509,503,507,515,517,509,503,506,514,517,509,503,507,515,517,509,503,506,514,516,509,503,506,515,517,509,503,506,514,516,509,503,506,514,517,509,503,506,514,516,509,503,507,515,517,509,503,506,514,517,509,503,507,515,517,509,503,506,514,517,509,503,507,515,517,509,503,506,514,517,509,503,506,514,517,509,503,506,514,517,509,503,506,514,517,509,503,506,514,517,509,503,506,514,517,509,503,506,514,516,509,503,506,514,517,509,503,506,514,517,509,503,506,514,517,509,503,505,513,516,509,503,506,514,517,509,503,506,514,517,509,503,506,514,517,509,503,506,513,516,509,503,506,514,517,510,503,506,513,517,509,503,506,514,517,509,503,506,513,517,509,503,506,514,517,509,503,506,513,517,509,503,506,514,517,510,503,506,513,517,509,503,506,514,517,510,503,506,513,517,510,503,506,514,517,510,503,506,513,517,509,503,506,514,517,510,503,505,513,517,509,503,506,514,517,510,503,505,513,517,509,503,506,514,517,510,503,505,513,517,510,503,506,514,517,510,503,505,513,517,510,503,506,514,517,510,503,505,513,516,510,503,506,513,517,510,503,505,513,517,510,503,506,513,517,510,503,505,513,516,510,503,505,513,517,510,503,505,513,517,510,503,505,513,517,510,503,505,513,517,510,503,506,513,517,510,503,505,513,517,510,503,506,513,517,510,503,505,513,517,510,503,506,513,517,510,503,505,513,517,510,503,506,513,517,511,503,505,513,517,510,503,506,513,517,511,503,505,513,517,510,503,506,513,517,511,503,505,513,517,511,503,506,513,517,511,503,505,513,517,511,503,506,513,517,511,503,505,513,517,511,503,506,513,517,511,503,505,513,517,511,503,505,513,517,511,503,505,513,517,511,503,505,513,518,511,503,505,513,517,511,503,505,513,517,511,503,505,513,517,511,504,506,513,517,511,503,505,512,517,511,503,505,513,517,511,503,505,512,517,511,503,505,513,517,511,503,505,512,517,511,503,505,513,517,511,503,505,512,517,511,503,505,513,517,511,503,505,512,517,511,503,505,513,517,511,503,505,512,517,511,503,505,513,518,511,503,505,512,517,511,503,505,513,517,511,503,505,512,517,511,503,505,513,517,511,503,505,512,517,511,504,505,513,517,511,503,505,512,517,511,503,505,512,517,511,503,505,512,517,511,504,505,513,517,511,503,505,512,517,512,504,505,513,517,511,503,505,512,517,511,504,505,512,517,512,503,505,512,517,511,504,505,512,517,512,503,505,512,517,511,503,505,512,517,511,503,504,512,517,512,504,505,512,517,512,503,504,512,517,512,504,505,512,517,512,504,504,512,517,512,504,505,512,517,512,503,504,512,517,512,504,505,512,517,512,504,505,512,517,512,504,505,512,517,512,503,504,512,517,512,504,505,512,517,512,504,504,512,517,512,504,505,512,517,512,504,505,512,517,512,504,505,512,517,512,504,504,512,517,512,504,505,512,517,512,504,504,512,517,512,504,505,512,517,512,504,504,512,517,512,504,505,512,517,512,504,504,512,517,512,504,505,512,518,512,504,504,512,517,512,504,505,512,517,512,504,504,512,517,512,504,505,512,517,512,504,504,512,517,512,504,505,512,517,512,504,504,511,517,512,504,505,512,517,512,504,504,512,517,512,504,505,512,517,512,504,504,512,517,512,504,505,512,517,512,504,504,512,517,512,504,505,512,517,512,504,504,511,517,512,504,505,512,518,512,504,504,512,517,512,504,504,512,517,512,504,504,511,517,512,504,505,512,517,512,504,504,511,517,512,504,505,512,517,512,504,504,511,517,512,504,505,512,517,512,504,504,511,517,512,504,504,512,517,512,504,504,511,517,512,504,504,512,518,513,504,504,511,517,512,504,504,512,517,512,504,504,511,517,512,504,504,512,517,513,504,504,511,517,512,504,505,512,517,512,504,504,511,517,512,504,505,512,517,512,504,504,511,517,512,504,504,512,517,513,504,504,511,517,513,504,504,512,517,513,504,504,511,517,512,504,504,511,517,513,504,504,511,517,513,504,504,511,517,513,504,504,511,517,513,504,504,511,517,513,504,504,511,517,513,504,504,511,517,513,504,504,511,517,512,504,504,511,517,513,504,504,511,517,513,504,504,511,517,513,504,504,511,517,513,504,504,511,517,513,504,504,510,517,513,504,504,511,517,513,504,504,511,517,513,505,504,511,517,513,504,504,510,517,513,504,504,511,517,513,504,504,511,517,513,504,504,511,517,513,504,504,511,517,513,505,504,511,517,513,504,503,510,517,513,505,504,511,517,513,505,504,510,517,513,505,504,511,517,513,505,504,510,517,513,505,504,511,517,513,504,504,510,517,513,505,504,511,517,513,504,504,510,517,513,505,504,511,517,513,505,504,510,517,513,505,504,511,517,513,505,503,510,517,513,505,504,511,517,513,505,504,510,517,513,505,504,511,517,513,504,503,510,516,513,505,504,511,517,513,505,504,510,516,513,505,504,511,517,514,505,504,510,517,513,505,504,510,517,513,504,503,510,517,513,505,504,511,517,514,505,503,510,516,513,505,504,510,517,513,505,503,510,516,513,505,504,510,517,513,505,503,510,516,513,505,504,510,517,513,505,503,510,516,513,505,504,510,517,514,505,503,510,517,513,505,504,510,517,514,505,503,510,517,514,505,504,510,517,514,505,503,510,516,513,505,504,510,517,514,505,503,510,516,514,505,504,510,517,514,505,503,510,516,513,505,504,510,517,514,505,503,510,516,513,505,504,510,517,514,505,503,510,517,514,505,504,510,517,514,505,503,509,516,514,505,504,510,517,514,505,503,509,516,514,505,504,510,517,514,505,503,510,516,514,505,504,510,517,514,505,503,509,516,514,505,504,510,517,514,505,503,510,516,514,505,504,510,517,514,505,503,509,516,514,505,503,510,517,514,505,503,509,516,514,505,504,510,517,514,505,503,509,516,514,505,504,510,517,514,505,503,509,516,514,505,504,510,517,514,505,503,509,516,514,505,504,510,517,514,505,503,509,516,514,505,504,510,517,514,506,503,509,517,514,506,504,510,517,514,505,503,509,517,514,506,504,510,517,514,505,503,509,516,514,506,503,510,517,514,506,503,509,516,514,505,503,510,517,514,505,503,509,516,514,505,503,510,517,514,505,503,509,516,514,506,503,510,517,514,505,503,509,516,514,506,503,509,517,515,506,503,509,516,514,506,503,509,517,515,506,503,509,516,514,506,503,509,517,515,506,503,509,516,514,506,503,509,517,515,506,503,509,516,514,506,503,509,517,515,506,503,509,516,514,506,503,509,516,514,506,503,509,516,515,506,503,509,516,514,506,503,509,516,515,506,503,509,517,515,506,503,509,516,514,506,503,509,516,515,506,503,509,516,514,506,503,509,516,515,506,503,509,516,514,506,503,509,517,515,506,503,509,516,514,506,503,509,517,515,506,503,509,516,515,506,503,509,516,515,506,503,508,516,515,506,503,509,516,515,507,504,509,514,511,503,504,512,519,516,505,502,509,517,515,506,503,509,517,515,505,502,509,517,515,506,503,509,517,515,505,502,508,517,515,506,503,509,517,515,506,502,508,516,515,505,502,508,517,515,505,502,508,516,515,505,502,508,517,517,507,503,507,515,514,505,502,508,517,516,507,503,508,515,515,506,503,509,516,515,506,502,508,516,515,506,503,508,516,515,506,502,508,515,515,506,503,508,516,515,506,502,508,515,514,506,503,508,516,515,506,502,508,515,515,506,503,508,516,515,506,502,508,515,515,506,503,508,516,514,506,502,508,515,515,506,503,508,516,515,506,502,508,515,515,506,503,508,516,515,506,503,508,515,514,506,503,508,516,515,507,503,508,515,515,506,503,508,516,515,506,502,508,515,515,507,503,508,516,515,506,503,508,516,515,507,503,508,516,515,506,502,508,516,515,507,503,509,516,515,506,503,508,515,515,507,503,508,516,515,507,503,508,516,515,507,503,508,516,515,507,503,508,516,515,507,503,508,516,515,507,503,508,515,515,507,503,508,516,515,506,503,508,515,515,507,503,508,516,515,507,503,508,516,515,507,503,508,516,516,507,503,508,516,515,507,503,508,516,516,507,503,508,515,515,507,503,508,516,516,507,503,508,516,516,507,503,508,516,515,507,503,508,516,515,507,503,508,516,516,507,503,508,515,515,507,503,508,516,516,507,503,508,516,516,507,503,508,516,516,507,503,508,516,516,507,503,508,516,516,507,503,508,516,516,507,503,508,516,516,507,503,508,516,516,508,504,508,516,516,507,503,508,515,516,507,503,508,516,516,507,503,508,516,516,508,503,508,516,516,507,503,508,516,516,508,504,508,516,516,507,503,508,516,516,508,503,508,516,516,507,503,507,515,516,508,503,508,516,516,507,503,508,515,516,508,504,508,516,516,508,503,507,515,516,508,503,508,516,516,507,503,507,515,516,508,503,508,516,516,507,503,507,515,516,508,503,508,516,516,508,503,507,515,516,508,504,508,516,516,508,503,507,515,516,508,503,508,516,516,508,503,507,515,516,508,503,508,516,516,508,503,507,515,516,508,503,508,516,516,508,503,507,515,516,508,503,508,516,516,508,503,507,515,516,508,503,508,516,516,508,503,507,515,516,508,503,508,516,516,508,503,507,515,516,508,503,508,515,516,508,503,507,515,516,508,503,508,515,516,508,503,507,515,516,508,503,508,515,516,508,503,507,515,516,508,503,508,515,516,508,503,507,515,516,508,503,507,515,516,508,503,507,515,516,508,503,507,515,516,508,503,507,515,516,508,503,507,515,516,508,503,507,515,516,508,503,507,515,517,508,503,507,515,516,508,503,507,515,516,508,503,507,515,516,508,503,507,515,516,508,503,507,515,516,508,503,507,515,516,508,503,507,515,516,508,503,507,515,516,508,503,507,514,516,508,503,507,515,516,507,502,506,514,516,507,502,506,514,516,508,502,506,514,516,508,503,507,515,516,508,502,506,514,516,508,503,507,515,516,508,502,506,514,516,508,503,507,515,517,508,502,506,514,516,508,503,507,515,516,508,502,506,514,516,508,503,507,515,517,508,502,506,514,516,509,503,507,515,516,508,502,506,514,517,509,503,507,515,516,508,502,506,514,517,509,503,507,515,517,508,502,506,514,516,509,503,507,515,517,508,502,506,514,517,509,503,507,515,517,509,503,506,514,517,509,503,507,515,517,509,503,506,514,517,509,503,507,515,517,509,503,506,514,517,509,503,507,515,517,509,503,506,514,517,509,503,507,515,517,509,503,506,514,516,509,503,507,515,517,509,503,506,514,517,509,503,507,515,517,509,503,506,514,517,509,503,507,515,517,509,503,506,514,517,509,503,506,514,517,509,503,506,514,517,509,503,507,515,517,509,503,506,514,517,509,503,507,515,517,509,503,506,514,517,509,503,507,515,517,509,503,506,514,517,509,503,507,515,517,509,503,506,514,517,509,503,507,515,517,509,503,506,514,517,509,503,507,515,517,509,503,506,514,517,509,503,506,514,517,509,503,506,514,517,509,503,506,514,517,509,503,506,514,517,509,503,506,514,517,509,503,506,514,517,509,503,506,514,517,509,503,506,514,517,510,503,506,514,517,509,503,506,514,517,510,503,506,514,517,510,503,506,514,517,510,503,506,514,517,509,503,506,514,517,510,503,506,514,517,510,503,506,514,517,510,503,506,514,517,510,503,506,514,517,510,503,506,514,517,509,503,506,514,517,510,503,506,514,517,510,503,506,514,517,510,503,506,514,517,510,503,506,514,517,510,503,506,514,517,509,502,505,513,517,509,503,505,513,516,508,501,504,512,515,508,502,504,513,516,508,501,504,512,516,509,502,505,513,516,508,501,504,512,516,509,502,505,513,516,509,502,504,513,516,509,502,505,513,516,509,502,504,513,516,509,502,505,513,516,509,502,505,513,516,509,502,505,513,517,509,502,505,513,517,510,503,505,513,517,510,502,505,513,517,510,503,505,513,517,510,502,505,513,517,510,503,505,513,517,510,503,505,513,517,510,503,505,513,517,510,503,505,513,517,510,503,505,513,517,510,503,505,513,517,510,503,506,513,517,510,503,505,513,517,510,503,506,514,518,510,503,505,513,517,510,503,506,514,517,510,503,505,513,517,511,503,506,513,517,510,503,505,513,517,511,503,506,513,517,510,503,505,513,517,511,503,506,514,518,511,503,505,513,517,511,503,506,513,518,511,503,505,513,518,511,503,506,513,518,511,503,505,513,517,511,503,505,513,518,511,503,505,513,517,511,503,505,513,518,511,503,505,513,517,511,503,505,513,518,511,503,505,513,517,511,503,505,513,518,511,503,505,513,517,511,503,505,513,518,511,503,505,513,517,511,504,505,513,518,511,503,505,513,518,511,504,505,513,518,511,503,505,513,517,511,504,505,513,518,511,503,505,513,517,511,504,506,513,518,511,503,505,513,517,511,504,505,513,518,511,503,505,513,518,511,504,505,513,518,511,503,505,513,518,511,504,505,513,518,511,503,505,513,518,512,504,505,513,518,511,503,505,513,518,512,504,505,513,518,511,503,505,512,518,512,504,505,513,518,512,503,505,513,518,512,504,505,513,518,512,503,505,512,518,512,504,505,513,518,512,503,505,512,518,512,504,505,513,518,512,503,505,512,518,512,504,505,513,518,512,503,505,512,518,512,504,505,513,517,511,503,505,512,518,512,504,505,513,518,512,503,504,512,517,512,504,505,513,518,512,503,505,512,518,512,504,505,513,518,512,503,504,512,518,512,504,505,513,518,512,503,504,512,517,512,504,505,513,518,512,503,504,512,518,512,504,505,512,518,512,503,504,512,518,512,504,505,512,518,512,503,504,512,517,512,504,505,512,518,512,503,504,512,517,512,504,505,512,518,512,504,504,512,518,512,504,505,512,518,512,503,504,512,518,512,504,505,512,518,512,503,504,512,517,512,504,505,512,517,512,503,504,512,517,512,504,505,512,517,512,503,504,512,517,512,504,505,512,517,512,503,504,512,517,512,504,505,512,517,512,504,504,512,517,512,504,505,512,518,512,504,504,512,517,512,504,505,512,517,512,503,504,512,517,512,504,504,512,518,512,504,504,512,517,512,504,505,512,517,512,503,504,512,517,512,504,505,512,517,512,504,504,512,517,512,504,504,512,517,512,504,504,512,517,512,504,505,512,517,512,504,504,512,517,512,504,505,512,517,512,504,504,512,517,512,504,504,512,517,512,504,504,511,517,512,504,504,512,517,512,504,504,511,517,512,504,504,512,518,512,504,504,511,517,512,504,504,512,517,512,504,504,511,517,512,504,504,511,517,512,503,504,511,517,512,504,504,511,517,512,504,504,511,517,512,504,504,511,517,512,504,504,511,517,512,504,504,511,517,512,504,504,511,517,512,504,504,511,517,512,504,504,511,517,512,504,504,511,517,512,504,504,511,517,512,504,504,511,517,512,504,504,511,517,513,504,504,511,517,513,504,504,511,517,513,504,504,511,517,512,504,504,511,517,513,504,504,511,517,513,504,504,511,517,513,504,504,511,517,513,504,503,511,517,513,505,504,511,517,513,504,504,511,517,513,504,504,511,517,513,504,504,511,517,513,505,504,511,517,513,504,504,511,517,513,505,504,511,517,513,504,504,511,517,513,505,504,511,517,513,504,504,511,517,513,505,504,511,517,513,504,503,511,517,513,504,504,511,517,513,504,504,511,517,513,505,504,511,517,513,504,503,510,517,513,505,504,511,517,513,504,504,511,517,513,505,504,511,517,513,504,503,510,517,513,505,504,511,517,513,504,503,510,517,513,505,504,511,517,513,504,503,510,517,513,505,504,511,517,513,504,503,510,517,514,505,504,511,517,513,505,504,510,517,513,505,504,511,517,513,505,504,510,517,514,505,504,511,517,513,504,503,510,517,514,505,504,511,517,513,505,503,510,517,514,505,504,511,517,513,505,503,510,517,514,505,504,511,517,513,505,503,510,517,514,505,504,511,517,514,505,503,510,517,514,505,504,511,517,514,505,503,510,517,514,505,504,510,517,513,505,503,510,517,514,505,504,510,517,514,505,503,510,517,514,505,504,510,517,514,505,503,510,517,514,505,504,510,517,514,505,503,510,517,514,505,504,510,517,514,505,503,510,517,514,505,504,510,517,514,505,503,510,517,514,505,504,510,517,514,505,503,509,516,514,505,504,510,517,514,505,503,510,517,514,506,504,510,517,514,505,503,510,517,514,506,504,510,517,514,505,503,510,517,514,506,504,510,517,514,505,503,510,517,514,506,504,510,517,514,505,503,509,517,514,506,504,510,517,514,505,503,509,517,514,506,504,510,517,514,505,503,509,517,514,506,504,510,517,514,505,503,509,516,515,507,503,504,512,516,516,518,518,516,509,502,505,512,517,512,504,504,511,517,512,504,504,512,517,512,504,504,511,517,513,504,505,512,517,512,504,504,511,517,512,504,504,511,517,512,504,504,511,517,512,504,505,512,517,512,504,504,511,517,513,504,504,512,517,512,504,504,511,517,513,504,504,512,517,512,504,504,511,517,513,504,504,512,517,512,504,504,511,517,513,504,504,512,517,513,504,504,511,517,512,504,504,511,517,513,504,504,511,517,513,504,504,511,517,513,504,504,511,517,513,504,504,512,517,513,504,504,511,517,513,504,504,511,517,512,504,503,511,517,512,504,504,511,517,513,504,503,511,517,513,504,504,511,517,512,504,503,510,517,513,504,504,511,517,512,504,503,510,517,513,504,503,510,516,512,504,503,510,517,513,504,504,511,517,513,504,503,510,516,513,504,504,511,517,513,504,503,510,517,513,504,504,511,517,513,504,503,510,517,513,505,504,511,517,513,504,503,510,517,513,505,504,511,517,513,504,503,510,517,513,505,504,511,517,513,504,503,510,517,513,505,504,511,517,513,505,504,510,517,513,505,504,511,517,513,505,504,511,517,514,505,504,511,517,513,505,504,511,517,514,505,504,511,517,513,505,503,510,517,514,505,504,511,517,514,505,504,510,517,514,505,504,511,517,513,505,503,510,517,514,505,504,511,517,514,505,503,510,517,514,505,504,511,517,514,505,504,510,517,514,505,504,511,517,514,505,503,510,517,514,505,504,511,517,514,505,503,510,517,514,506,504,511,517,514,505,504,510,517,514,505,504,510,517,514,505,503,510,517,514,505,504,510,517,514,505,503,510,517,514,505,504,510,517,514,505,503,510,517,514,505,504,510,517,514,505,503,510,517,514,506,504,510,517,514,505,503,510,517,514,505,504,510,517,514,505,503,510,517,514,506,504,510,517,514,505,503,510,517,514,505,504,510,517,514,505,503,510,517,514,506,504,510,517,514,505,503,510,517,514,506,504,510,517,514,505,503,510,517,514,506,504,510,517,514,505,503,510,517,514,506,504,510,517,514,505,503,509,517,514,506,504,510,517,514,505,503,509,517,515,506,504,510,517,514,505,503,509,517,515,506,504,510,517,514,505,503,509,517,514,506,504,510,517,514,506,503,509,517,515,506,504,510,517,514,505,503,509,517,515,506,504,510,517,514,506,503,509,517,515,506,503,509,516,514,505,503,509,517,515,506,504,510,517,515,506,503,509,517,515,506,504,510,517,515,506,503,509,517,515,506,504,510,517,515,506,503,509,517,515,506,504,510,517,515,506,503,509,517,515,506,504,510,517,515,506,503,509,517,515,507,504,509,517,515,506,503,509,516,515,506,504,509,517,515,506,503,509,516,515,506,504,509,517,515,506,503,509,516,515,507,504,509,516,515,506,503,509,516,515,507,504,509,516,515,506,503,509,516,515,507,504,509,516,515,506,503,509,516,515,506,503,509,516,515,506,503,509,516,515,507,503,509,516,515,506,503,509,516,516,507,504,509,516,515,506,503,509,516,515,507,504,509,516,515,506,503,509,516,515,507,504,509,516,515,506,503,509,516,516,507,504,509,516,515,506,503,508,516,515,507,504,509,516,515,506,503,508,516,516,507,504,509,516,515,506,503,508,516,515,507,503,509,516,515,507,503,508,516,515,507,503,509,516,515,507,503,508,516,516,507,503,509,516,515,507,503,509,516,516,507,503,509,516,515,507,503,508,516,516,507,504,509,516,516,507,503,508,516,516,507,503,508,516,515,507,503,508,516,516,507,504,509,516,516,507,503,508,516,516,507,503,508,516,516,507,503,508,516,516,507,504,508,516,516,507,503,508,516,516,507,504,508,516,516,507,503,508,516,516,508,504,508,516,516,507,503,508,516,516,508,504,508,516,516,507,503,508,516,516,507,503,508,516,516,507,503,508,516,516,508,504,508,516,516,507,503,508,516,516,508,503,508,516,516,507,503,508,516,516,508,503,508,516,516,507,503,508,516,516,508,503,508,516,516,507,503,508,516,516,508,503,508,516,516,507,503,508,516,516,508,503,508,516,516,507,503,507,515,516,508,503,508,516,516,507,503,507,515,516,508,503,508,516,516,507,503,507,515,516,508,503,508,515,516,507,503,507,515,516,508,503,508,515,516,507,503,507,515,516,508,503,508,515,516,507,503,507,516,516,508,503,508,515,516,507,503,507,515,516,508,503,508,515,516,508,503,507,515,516,508,503,508,515,516,508,503,507,515,516,508,503,507,515,516,508,503,507,515,516,508,503,507,515,516,508,503,507,515,516,508,503,508,515,516,508,503,507,515,516,508,503,507,515,516,508,503,507,515,517,508,503,507,515,516,508,503,507,515,517,508,503,507,515,516,508,503,507,515,517,509,504,507,515,516,508,503,507,515,517,509,504,507,515,516,508,503,507,515,516,508,503,507,515,517,508,503,507,515,516,508,503,507,515,517,508,503,507,515,516,508,503,507,515,516,508,503,507,515,517,509,503,507,515,516,508,503,507,515,517,509,503,507,515,516,508,503,507,515,517,509,503,507,515,517,508,503,507,515,517,509,503,507,515,517,508,503,507,515,517,509,503,507,515,517,508,503,507,515,517,509,503,507,515,517,509,503,507,515,517,509,503,507,515,517,509,503,507,515,517,509,503,507,515,517,509,503,506,514,517,509,503,507,515,517,509,503,507,515,517,509,503,507,515,517,509,503,507,515,517,509,503,507,515,517,509,503,506,515,517,509,503,507,515,517,509,503,506,514,517,509,503,507,515,517,509,503,506,515,517,509,504,507,515,517,509,503,506,514,517,509,503,507,514,516,509,503,506,514,517,509,503,507,514,517,509,503,506,514,517,510,504,507,514,517,509,503,506,514,517,509,503,506,514,517,509,503,506,514,517,510,503,506,514,517,509,503,506,514,517,510,504,507,514,517,509,503,506,514,517,510,504,506,514,517,509,503,506,514,517,510,503,506,514,517,509,503,506,514,517,510,503,506,514,517,509,503,506,514,517,510,503,506,514,517,509,503,506,514,517,510,503,506,514,517,509,503,506,514,517,510,503,506,514,517,510,503,506,514,517,510,503,506,514,517,509,503,506,514,517,510,503,506,514,517,510,503,506,514,517,510,504,506,514,517,509,503,506,514,517,510,503,506,514,517,510,503,506,514,517,510,503,506,514,517,510,503,506,514,517,510,503,506,514,517,510,503,506,514,517,510,503,506,514,517,510,503,506,514,517,510,503,506,514,517,510,503,506,514,517,510,503,506,514,517,510,503,506,514,517,510,503,506,513,517,510,503,505,513,517,510,503,506,514,517,510,503,505,513,517,510,503,506,513,517,510,503,505,513,517,510,503,506,513,517,510,503,505,513,517,510,503,506,513,517,510,503,505,513,517,510,503,506,513,517,510,503,505,513,517,511,504,506,513,517,510,503,505,513,517,511,504,506,513,517,510,503,505,513,517,511,503,506,513,517,510,503,505,513,517,511,503,506,513,517,510,503,505,513,517,511,504,506,513,517,510,503,505,513,517,511,503,506,513,517,510,503,505,513,518,511,504,505,513,517,510,503,505,513,517,511,504,505,513,517,510,503,505,513,517,511,504,505,513,517,511,503,505,513,517,511,504,505,513,517,510,503,505,513,517,511,504,505,513,517,511,503,505,513,517,511,504,505,513,517,511,503,505,513,517,511,504,505,513,517,511,503,505,513,517,511,503,505,513,517,511,503,505,513,517,511,503,505,513,517,511,503,505,513,518,511,504,505,513,517,511,503,505,512,517,511,504,505,513,517,511,503,505,512,517,511,504,505,512,517,511,503,505,512,517,511,504,505,513,517,511,503,505,512,517,511,504,505,512,517,511,503,505,512,517,511,504,505,512,517,511,503,505,512,517,511,504,505,512,517,511,503,505,512,518,512,504,505,512,517,511,503,505,512,518,512,504,505,512,517,511,503,505,513,518,512,504,505,512,517,511,503,505,512,517,512,504,505,512,517,511,503,504,512,517,511,503,505,512,517,511,503,504,512,517,511,503,504,512,517,511,503,504,512,517,511,503,505,512,517,511,503,504,512,517,512,504,505,512,517,511,503,504,512,517,512,504,505,512,517,511,503,504,512,517,512,504,505,512,517,511,503,504,512,517,512,504,505,512,517,511,503,504,512,517,512,504,505,512,517,511,503,504,512,517,512,504,505,512,517,512,503,504,512,517,512,504,505,512,517,512,503,504,512,517,512,504,505,512,517,512,503,504,512,517,512,504,504,512,517,512,504,504,512,517,512,504,504,512,517,512,504,504,512,517,512,504,504,512,517,512,504,504,512,517,512,504,504,512,517,512,504,504,512,517,512,504,505,512,517,512,504,504,512,517,512,504,505,512,517,512,504,504,512,517,512,504,505,512,517,512,504,504,512,517,512,504,505,512,517,512,504,504,512,517,512,504,504,512,517,512,504,504,512,517,512,504,504,512,517,512,504,504,511,517,512,504,504,512,517,512,504,504,511,517,512,504,504,511,517,512,504,504,512,517,513,504,504,511,517,512,504,504,511,517,513,504,504,511,517,512,504,504,511,517,513,504,504,511,517,512,504,504,511,517,513,504,504,511,517,512,504,504,511,517,513,504,504,511,517,512,504,504,511,517,513,505,504,511,517,512,504,504,511,517,513,504,504,511,517,512,504,504,511,517,513,504,504,511,517,513,504,504,511,517,513,504,504,511,517,513,504,504,511,517,513,505,504,511,517,513,504,504,511,517,513,505,504,511,517,513,504,504,511,517,513,504,504,511,517,513,504,504,511,517,513,505,504,511,517,513,504,504,511,517,513,505,504,511,517,513,504,504,511,517,513,505,504,511,517,513,504,504,511,517,513,505,504,511,517,513,504,504,511,517,513,505,504,511,517,513,504,504,511,517,513,505,504,511,517,513,504,504,511,517,513,505,504,511,517,513,505,504,511,517,513,505,504,511,517,513,504,504,511,517,514,505,504,511,517,513,505,504,511,517,514,505,504,511,517,513,504,503,511,517,513,505,504,511,517,513,505,504,511,517,514,505,504,511,517,513,504,504,511,517,514,505,504,511,517,513,505,504,511,517,514,505,504,511,517,513,505,504,511,517,514,505,504,511,517,513,505,504,511,517,514,505,504,511,517,514,505,504,511,518,514,506,504,511,517,513,505,504,511,517,514,505,504,511,517,514,505,504,511,517,514,505,504,511,517,514,505,504,511,517,514,505,504,510,517,513,505,503,510,517,514,505,504,510,517,513,505,503,510,517,514,505,504,510,517,514,505,503,510,517,514,505,504,510,517,513,505,503,510,517,514,505,504,510,517,514,505,503,510,517,514,506,504,510,517,514,505,504,510,517,514,506,504,510,517,514,505,503,510,517,514,505,504,510,517,514,505,504,510,517,514,506,504,510,517,514,505,503,510,517,514,506,504,510,517,514,505,503,510,517,514,506,504,510,517,514,505,503,510,517,515,506,504,510,517,514,505,504,510,517,514,506,504,510,517,514,505,503,510,517,514,506,504,510,517,514,505,503,510,517,514,506,504,510,517,514,505,503,510,517,514,506,504,510,517,514,505,503,510,517,515,506,504,510,517,514,505,503,510,517,515,506,504,510,517,514,505,503,509,517,514,506,504,510,517,514,505,503,510,517,515,506,504,510,517,514,505,503,510,517,515,506,504,510,516,514,505,503,509,517,515,506,504,510,517,514,505,503,509,517,515,506,504,510,517,514,505,503,509,517,515,506,504,509,516,514,505,503,509,517,515,506,504,509,516,514,505,503,509,517,515,506,504,510,517,514,506,503,509,517,515,506,504,510,517,514,506,503,509,517,515,506,504,509,517,514,506,503,509,517,515,506,504,510,517,515,506,503,509,517,515,506,504,509,517,515,506,503,509,517,515,506,504,509,516,515,506,503,509,517,515,506,504,509,516,514,506,503,509,517,515,506,504,509,516,515,506,503,509,517,515,506,504,509,516,514,506,503,509,516,515,506,503,509,517,515,506,503,509,516,515,506,503,509,516,515,506,503,509,517,515,507,504,509,516,515,506,503,509,517,515,507,504,509,516,515,506,503,509,517,515,507,504,509,516,515,506,503,509,517,515,507,504,509,516,515,506,503,509,516,515,506,503,509,516,515,506,503,509,516,515,507,504,509,516,515,506,503,509,517,515,507,504,509,516,515,506,503,509,516,515,506,503,509,516,515,506,503,509,516,515,507,503,509,516,515,506,503,509,516,515,507,503,509,516,515,506,502,508,516,515,506,503,508,515,514,505,502,508,516,515,506,503,508,515,514,505,502,508,515,514,506,502,507,515,514,505,502,507,515,514,506,502,508,515,514,505,502,507,515,515,506,502,508,515,514,505,502,507,515,515,506,502,508,515,514,505,502,507,515,515,506,502,508,515,514,506,502,508,516,515,506,503,508,515,515,506,502,507,515,515,506,503,508,515,515,506,502,508,516,515,506,503,508,515,515,506,502,508,516,515,506,503,508,515,515,506,502,508,516,515,507,503,508,515,515,506,502,508,516,515,507,503,508,516,515,506,502,508,516,516,507,503,508,515,515,506,503,508,516,516,507,503,508,515,515,506,503,508,516,516,507,503,508,516,515,507,503,508,516,516,507,503,508,516,515,507,503,508,516,516,507,503,508,516,515,507,503,508,516,516,507,503,508,516,516,507,503,508,516,516,507,503,508,516,515,507,503,508,516,516,507,503,508,516,515,507,503,508,516,516,507,503,508,516,516,507,503,508,516,516,507,503,508,516,516,507,503,508,516,516,507,503,508,516,516,507,503,508,516,516,508,503,508,516,516,507,503,508,516,516,508,503,508,516,516,507,503,508,516,516,508,503,508,516,516,507,503,508,516,516,508,503,508,516,516,507,503,508,516,516,508,503,508,516,516,508,503,508,516,516,508,503,508,516,516,507,503,508,516,516,508,504,508,516,516,507,503,508,516,516,508,503,508,516,516,508,503,508,516,517,508,503,508,516,516,507,503,508,516,516,508,504,508,516,516,508,503,508,516,517,508,504,508,516,516,508,503,508,516,517,508,504,508,516,516,508,503,508,516,517,508,503,508,516,516,508,503,508,516,517,508,504,508,516,516,508,503,508,516,517,508,504,508,516,516,508,503,508,516,516,508,503,508,516,516,508,503,508,516,517,508,503,508,516,516,508,503,508,516,517,508,504,508,516,516,508,503,508,516,517,508,504,508,516,516,508,503,507,516,517,509,504,508,515,516,508,503,507,516,517,509,504,508,515,516,508,503,507,516,517,509,504,508,515,516,508,503,508,516,517,508,503,508,515,516,508,503,507,516,517,509,503,507,515,516,508,503,507,515,517,508,503,507,515,516,508,503,507,516,517,509,503,507,515,517,508,503,507,515,517,509,503,507,515,516,508,503,507,515,517,509,503,507,515,516,508,503,507,515,517,508,503,507,515,516,508,503,507,515,517,508,503,507,515,516,508,503,507,515,517,508,503,507,515,516,508,503,507,515,517,508,503,507,515,516,508,503,507,515,517,509,503,507,515,516,508,503,507,515,516,508,503,507,515,516,508,503,507,515,517,509,503,507,515,516,508,503,507,515,517,509,503,507,515,516,508,503,507,515,517,509,503,507,515,516,508,503,507,515,517,509,503,507,515,516,508,503,507,515,517,509,503,507,515,516,508,503,507,515,517,509,503,507,515,516,508,503,507,515,517,509,503,507,515,516,508,503,507,515,517,509,503,507,515,516,508,503,506,515,517,509,503,506,514,516,508,503,506,515,517,509,503,506,514,516,508,503,506,515,517,509,503,507,515,517,509,503,507,515,517,509,503,507,515,517,509,503,507,515,517,509,504,507,515,517,509,503,507,515,518,510,504,507,515,517,509,503,507,515,517,509,503,507,515,517,509,503,507,515,517,509,504,507,514,517,509,503,507,515,517,510,504,507,515,517,509,503,507,515,517,509,504,507,515,517,509,503,507,515,517,509,503,507,515,517,509,503,507,515,517,509,503,507,515,517,509,503,507,515,517,510,503,507,515,517,509,503,507,515,517,510,504,507,515,517,509,503,507,515,518,510,504,507,514,517,509,503,507,515,517,509,503,507,514,517,509,503,507,515,517,510,503,507,515,517,509,503,506,515,517,510,503,506,514,517,509,503,506,514,517,510,503,506,514,517,509,503,506,515,517,510,503,506,514,517,509,503,507,515,517,510,503,506,514,517,509,503,506,515,517,510,503,507,514,517,509,503,506,515,517,510,503,506,514,517,509,503,506,514,517,510,503,506,514,517,509,503,506,514,517,510,504,506,514,517,509,503,506,514,517,510,503,506,514,517,510,503,506,514,517,510,503,506,514,517,509,503,506,514,517,510,503,506,514,517,509,503,506,514,517,510,503,506,514,517,509,503,506,514,517,510,503,506,514,517,509,503,506,514,517,510,503,506,514,517,509,503,506,514,517,510,503,506,514,517,510,503,506,514,517,510,503,506,514,517,509,503,506,514,517,510,503,506,514,517,510,503,506,514,517,510,503,506,513,517,509,503,505,514,517,510,503,506,513,517,509,503,505,513,517,510,503,505,513,516,509,502,505,513,517,510,503,506,513,517,509,503,505,513,517,510,503,505,513,517,509,502,505,513,517,510,503,505,513,517,510,503,505,513,517,510,503,505,513,517,510,503,505,513,517,510,503,505,513,516,509,503,505,513,517,510,503,506,513,517,510,503,505,513,517,510,503,506,513,517,510,503,506,514,517,510,503,505,513,517,510,503,505,513,517,510,503,506,513,517,510,503,505,513,517,510,503,505,513,517,510,503,505,513,517,511,503,506,513,517,510,503,505,513,517,511,503,505,513,517,510,503,505,513,517,511,503,506,513,517,510,503,505,513,517,511,503,505,513,517,510,503,505,513,517,511,503,505,513,517,510,503,505,513,517,511,503,505,513,517,510,503,505,513,517,511,503,505,513,517,510,503,505,513,517,511,503,505,513,517,510,503,505,513,518,511,503,505,513,517,510,503,505,513,517,511,503,505,513,517,510,503,505,513,517,511,503,505,513,517,511,503,505,513,517,511,504,505,513,517,511,503,505,513,517,511,504,505,513,517,511,503,505,513,517,511,503,505,513,517,510,503,505,513,518,511,503,505,513,517,511,503,505,513,518,511,504,505,513,517,511,503,505,513,518,511,504,505,513,517,511,503,505,513,518,511,504,505,513,517,511,503,505,513,518,511,504,505,513,517,511,503,505,513,518,511,503,505,512,517,511,503,505,512,517,511,503,505,512,517,511,503,505,513,518,511,504,505,513,517,511,504,505,513,517,511,504,505,513,517,511,503,505,513,518,511,504,505,513,517,511,503,505,513,518,512,504,505,513,517,511,503,505,513,518,512,504,505,512,517,511,504,505,513,518,512,504,505,512,517,511,503,505,513,518,512,504,505,512,517,511,503,505,513,518,512,504,505,513,517,511,504,505,513,518,512,504,505,512,517,511,503,505,512,518,512,504,505,512,517,511,503,505,513,518,512,504,505,512,517,511,503,505,513,518,512,504,505,512,517,511,503,505,512,518,512,504,505,512,517,511,503,505,512,518,512,504,505,512,517,511,503,505,512,518,512,504,505,512,517,512,504,505,512,517,512,504,505,512,517,511,503,505,512,518,512,504,505,512,517,511,503,505,512,517,512,504,505,512,517,511,503,505,512,518,512,504,505,512,517,512,503,505,512,518,512,504,505,512,517,512,503,505,512,518,512,504,505,512,517,512,503,505,512,518,512,504,505,512,517,512,504,505,512,517,512,504,505,512,517,512,503,504,512,517,512,504,505,512,517,512,503,505,512,518,512,504,504,512,517,512,503,504,512,518,512,504,505,512,517,512,504,504,512,517,512,504,504,512,517,512,504,504,512,517,512,504,505,512,517,512,504,504,512,517,512,504,504,512,517,512,504,505,512,517,512,504,504,512,517,512,503,504,512,518,512,504,504,512,517,512,504,504,512,517,512,504,504,512,517,512,504,504,512,517,512,504,504,512,517,512,504,504,512,518,512,504,504,512,517,512,504,504,512,517,512,504,504,512,517,512,504,504,512,518,512,504,504,512,517,512,504,504,512,518,513,504,504,512,517,512,504,504,512,517,512,504,504,511,517,512,504,504,512,517,513,504,504,511,517,512,504,504,512,517,512,504,504,512,517,512,504,504,512,517,513,504,504,511,517,512,503,504,512,518,513,504,504,512,517,512,504,504,512,518,513,504,504,512,517,513,504,504,512,517,513,504,504,511,517,512,504,504,512,517,513,504,504,512,517,512,504,504,512,517,513,504,504,511,517,512,504,504,512,518,513,504,504,512,517,513,504,504,512,518,513,504,504,511,517,513,504,504,512,518,513,505,504,511,517,513,504,504,511,517,513,504,504,511,517,513,504,504,511,517,513,504,504,511,517,512,504,504,511,517,513,504,504,511,517,512,504,504,511,517,512,504,503,510,516,512,503,503,510,517,512,504,503,510,516,512,503,503,510,517,512,504,503,510,516,512,503,503,511,517,512,504,503,510,516,512,503,503,510,516,512,503,503,510,515,511,503,502,510,516,512,503,502,509,515,511,502,502,509,516,512,503,502,509,515,511,502,502,509,515,511,502,502,509,515,511,502,502,509,515,512,503,502,509,515,511,502,502,509,515,511,503,502,509,515,511,502,502,509,516,512,503,502,509,515,511,502,502,509,516,512,503,502,509,515,512,503,502,509,516,512,503,502,509,515,512,503,502,509,516,512,503,502,509,516,512,503,502,509,516,512,503,502,509,515,512,503,502,510,516,512,503,503,509,516,512,503,503,510,516,512,504,503,510,516,512,503,503,510,516,513,504,503,510,516,512,504,503,510,517,513,504,503,510,516,512,504,503,510,517,513,504,503,510,516,512,504,503,510,517,513,505,504,511,517,514,505,504,512,518,515,506,505,511,518,514,506,505,512,517,513,503,501,508,515,512,504,504,511,517,514,504,503,509,516,513,504,503,511,517,514,505,503,510,517,514,505,505,512,518,515,506,504,511,518,515,506,506,512,519,515,506,505,512,519,516,507,506,513,520,516,507,505,512,518,515,506,505,512,518,515,506,504,511,518,514,506,504,511,518,514,505,504,510,517,514,505,504,510,517,514,505,504,510,517,513,505,504,510,517,514,505,504,510,516,513,504,503,510,517,514,505,503,510,517,513,505,503,510,517,514,505,503,510,516,513,504,503,510,516,513,505,503,509,515,512,502,499,505,512,509,501,500,507,515,512,504,502,508,514,512,503,502,509,516,513,504,502,508,515,512,503,502,510,517,515,506,504,511,518,515,505,502,508,516,514,505,502,508,515,513,505,503,508,515,513,505,503,508,515,512,504,502,508,515,512,504,502,508,514,512,505,503,509,515,513,505,503,509,516,513,505,503,509,516,514,506,504,510,517,515,506,504,510,517,515,507,505,511,517,515,507,506,511,518,515,507,506,512,519,516,508,506,512,518,516,508,506,512,519,517,508,506,512,519,517,508,507,512,520,518,509,507,512,519,517,508,506,512,519,517,508,506,511,518,516,508,506,512,518,516,508,505,511,517,515,507,505,511,517,515,507,505,511,517,515,507,505,511,518,515,507,505,510,517,515,506,504,510,518,518,510,505,504,508,510,511,515,518,518,511,504,507,512,517,511,503,504,512,519,514,506,506,512,518,512,504,504,512,518,513,505,505,511,517,512,504,504,512,518,513,505,505,512,517,512,504,504,512,518,513,505,503,510,516,512,505,504,511,517,513,505,505,511,516,512,504,504,511,517,512,504,504,511,516,512,504,504,511,517,513,505,504,511,516,512,504,504,511,517,512,504,504,510,516,512,504,504,511,516,512,504,504,510,516,512,504,504,510,516,512,504,504,510,516,512,504,504,511,516,512,504,504,510,516,512,504,504,510,516,512,504,503,510,516,512,504,504,510,516,512,504,504,510,516,512,505,505,512,518,514,505,504,509,514,510,503,505,513,518,512,503,503,510,516,512,505,507,514,521,515,505,503,510,516,512,505,505,513,519,514,505,504,511,517,514,505,505,512,519,514,505,504,510,516,513,505,505,512,519,515,506,505,511,518,514,506,506,512,519,514,505,504,511,517,513,505,505,512,518,514,506,505,512,518,514,505,505,512,519,515,506,505,511,517,513,505,505,512,518,514,506,505,511,518,514,505,504,511,518,514,505,504,511,517,514,505,504,511,518,514,506,505,511,517,513,505,504,511,517,513,505,504,510,517,513,505,504,511,517,513,505,504,511,517,513,504,504,511,517,513,505,504,511,517,513,504,504,511,517,513,505,504,510,517,513,504,503,510,517,513,505,504,510,517,513,504,503,510,517,513,505,503,510,517,513,504,503,510,517,513,504,502,509,516,513,505,504,510,516,513,504,503,510,516,513,505,504,510,516,512,505,505,513,519,514,505,504,510,517,513,504,502,509,516,513,504,503,510,516,513,504,503,509,516,512,504,502,509,516,513,503,501,507,514,512,505,503,509,516,513,505,503,509,515,512,504,503,509,515,512,504,502,509,516,513,505,504,510,516,513,505,503,509,515,513,505,503,510,516,513,505,503,509,516,513,505,504,510,516,514,505,504,509,516,513,505,503,510,516,514,505,504,510,516,513,505,504,510,517,514,505,504,510,516,514,505,504,510,517,514,506,504,510,517,514,506,504,510,517,514,506,504,510,516,514,506,504,510,517,514,506,504,510,517,514,506,504,511,517,515,506,504,510,516,514,506,504,511,517,515,506,504,510,516,514,506,504,511,517,515,506,504,510,517,515,506,505,511,517,515,507,505,510,517,515,506,504,510,517,515,507,505,510,517,515,507,505,511,517,515,507,505,510,517,515,507,505,511,517,515,507,505,511,517,515,507,505,511,518,516,507,505,511,518,516,507,505,511,518,516,508,505,511,518,516,507,505,511,518,516,508,506,511,518,516,508,505,511,518,516,508,506,511,518,516,508,506,511,518,517,508,506,511,518,516,508,506,512,518,517,509,506,512,518,517,509,507,512,519,517,509,506,512,519,517,509,507,512,519,518,509,507,512,519,517,509,507,512,519,518,510,507,512,519,518,510,507,513,520,518,510,507,512,519,518,510,507,512,519,518,510,508,513,519,518,510,508,513,520,518,510,508,513,520,518,510,507,513,520,519,511,508,513,520,519,510,508,513,520,519,511,508,513,520,518,510,508,513,521,519,511,508,513,520,519,511,508,513,521,519,511,508,513,520,519,511,508,514,521,520,511,509,513,520,519,511,509,514,521,520,511,509,513,521,519,511,509,514,521,520,512,509,514,521,520,512,509,514,521,520,512,509,513,521,520,512,509,514,521,520,512,509,514,521,520,512,509,514,521,520,512,509,514,521,520,512,509,514,521,520,512,509,514,521,520,512,509,514,521,520,512,509,514,521,520,512,509,514,521,520,512,509,514,521,520,512,509,514,521,521,512,509,514,521,520,512,509,514,521,521,512,509,514,521,520,512,509,514,521,521,512,509,514,521,520,512,509,514,521,521,512,509,514,521,520,512,509,514,521,521,512,509,514,521,520,512,509,514,521,521,512,509,513,521,520,512,509,514,521,521,512,509,513,521,520,512,509,514,521,521,512,509,513,521,520,512,509,514,521,521,512,509,513,521,520,512,509,513,521,520,512,509,513,520,520,512,509,513,521,520,512,508,513,520,520,512,509,513,521,520,512,509,513,520,520,512,508,513,521,520,512,509,513,520,520,512,509,513,521,520,512,508,513,520,520,512,508,513,520,520,512,508,513,520,520,512,508,513,520,520,512,508,513,520,520,512,508,513,520,520,512,508,512,520,520,512,508,512,520,520,512,508,512,520,520,512,508,512,520,520,512,508,512,519,519,512,508,512,520,520,512,508,512,519,519,512,508,512,519,520,512,508,512,519,519,511,508,512,520,520,512,507,512,519,519,511,507,512,519,520,512,507,512,519,519,511,507,512,519,520,512,507,512,519,519,511,507,512,519,519,511,507,512,519,519,512,508,512,519,520,512,507,511,519,519,511,507,512,519,520,512,507,512,519,519,511,507,512,519,519,511,507,511,519,519,511,507,512,519,520,512,507,511,518,519,511,507,511,519,520,512,507,511,518,519,511,507,511,519,519,512,507,511,518,519,511,507,511,519,519,512,507,511,518,519,511,507,511,519,519,511,507,511,518,519,511,507,511,519,519,511,507,511,518,519,511,506,511,518,519,511,507,510,518,519,511,507,511,518,519,511,506,510,517,518,510,506,510,517,518,510,506,509,517,518,510,505,510,517,518,510,505,509,516,517,510,505,509,517,518,510,505,509,516,517,509,505,509,516,517,509,504,508,516,517,509,504,508,516,517,509,504,508,515,516,509,504,508,515,516,508,504,507,514,516,508,503,507,515,516,508,503,507,514,515,508,503,507,515,516,508,503,507,514,515,508,503,507,515,516,508,503,506,514,515,507,503,507,514,515,508,503,506,514,515,507,503,507,514,516,508,503,506,514,515,507,502,506,514,516,508,503,507,514,515,508,503,507,515,516,509,504,507,514,516,508,503,507,515,516,508,503,507,514,516,509,504,508,515,517,509,504,507,514,516,508,503,507,515,516,509,504,507,514,516,508,503,507,515,516,509,503,507,514,515,508,503,507,514,516,508,503,506,514,515,508,503,506,514,516,508,503,506,514,516,508,503,506,514,516,508,503,506,513,515,508,503,506,514,515,508,502,506,513,515,507,502,506,513,515,507,502,505,512,514,507,502,505,513,514,507,501,505,512,514,506,501,505,513,514,507,501,505,512,513,506,501,505,512,515,507,502,505,512,514,506,501,505,513,515,507,502,504,512,514,506,501,505,513,515,507,501,504,512,514,506,501,505,512,514,507,501,504,512,514,507,501,505,512,515,507,501,504,512,514,507,501,505,513,515,507,501,504,512,514,507,501,505,513,515,508,502,505,512,514,507,502,505,513,515,508,502,505,512,514,507,502,505,513,515,508,502,505,512,515,507,502,505,513,515,508,502,505,512,515,507,502,505,512,515,508,502,505,512,514,507,502,505,513,515,508,502,505,512,515,508,502,505,513,515,509,502,502,509,516,517,517,516,514,509,502,501,508,514,513,506,502,507,514,514,506,502,506,514,513,506,502,507,514,514,506,502,507,514,514,506,502,507,514,514,506,502,507,514,514,506,502,507,514,514,506,502,507,514,514,506,502,507,514,514,506,502,507,514,514,506,502,507,514,514,506,502,507,514,514,506,502,507,514,514,506,502,507,514,514,506,502,507,514,514,506,502,507,514,514,506,502,507,514,515,506,502,507,514,514,506,503,507,514,515,506,502,507,514,515,507,503,506,513,513,505,501,507,516,517,509,504,507,513,513,505,502,507,515,516,508,503,507,514,514,506,502,507,515,516,508,504,508,515,515,507,503,508,515,516,508,504,508,515,516,508,504,508,516,516,508,504,508,515,516,508,504,508,515,516,508,504,508,515,515,507,503,507,515,515,508,503,507,514,515,507,503,507,514,515,507,503,508,515,515,507,503,507,514,515,507,503,508,515,515,507,503,507,514,515,507,503,508,515,516,508,503,507,514,515,507,503,507,515,515,507,503,507,514,515,507,503,507,515,515,507,503,507,514,515,507,503,507,515,515,507,503,507,514,515,507,503,507,514,515,507,503,507,514,515,507,503,507,514,515,507,503,507,514,515,507,503,507,515,515,508,503,507,514,515,507,503,507,514,515,507,503,507,514,515,507,503,507,514,515,508,503,506,514,515,507,503,507,514,516,508,503,507,514,515,507,503,507,514,515,508,503,507,514,515,507,503,507,514,515,508,503,506,514,515,507,503,507,514,515,507,503,507,514,515,507,503,507,514,515,508,503,507,514,514,508,504,508,513,511,502,499,506,515,516,507,501,506,514,515,507,502,506,514,515,506,502,507,515,516,508,503,507,515,516,508,503,507,516,516,508,503,507,514,515,507,502,507,515,516,508,503,507,515,515,507,502,507,515,516,508,502,506,514,516,508,503,507,515,516,507,502,506,514,516,508,503,507,515,516,507,502,506,514,515,507,502,507,515,516,507,502,506,514,515,507,502,506,514,516,507,502,506,514,515,507,502,507,515,516,508,502,506,514,515,507,502,506,514,516,507,502,506,515,517,509,502,505,513,516,509,503,506,514,516,508,503,506,514,516,508,503,506,514,515,508,503,507,513,514,508,505,510,517,516,507,501,506,515,516,508,502,506,514,516,508,502,506,515,517,508,501,504,512,515,509,503,506,514,517,510,504,506,513,514,506,502,507,516,518,511,504,505,512,514,507,503,508,516,518,510,504,506,513,515,508,503,508,516,518,510,504,506,513,515,508,503,507,515,517,509,503,506,514,516,509,504,507,515,516,509,503,506,513,516,509,503,507,515,517,509,503,506,513,516,508,503,506,514,517,509,503,506,514,516,509,503,506,514,516,509,503,506,514,516,509,503,506,514,516,509,504,506,513,516,509,503,506,514,516,509,504,507,513,515,508,504,507,513,514,507,503,509,518,519,510,502,504,512,516,509,503,506,513,516,509,503,506,514,516,509,503,506,513,516,509,503,506,514,516,509,503,506,513,516,509,504,506,514,516,509,503,505,513,518,514,506,500,498,498,498,504,512,518,515,506,503,508,516,515,507,503,508,515,515,507,503,508,515,516,507,503,508,515,515,507,503,508,515,516,508,504,508,515,515,507,504,508,515,516,508,504,508,515,515,508,504,509,516,516,508,504,508,516,516,508,504,509,516,516,508,504,508,516,516,508,504,509,516,516,508,504,508,516,516,508,504,508,516,516,508,504,508,515,516,508,504,508,516,516,508,504,508,515,516,508,504,508,515,516,508,503,508,515,515,508,504,508,515,516,508,503,508,515,515,507,504,508,515,516,508,503,508,515,516,508,503,508,515,516,508,503,507,515,516,508,503,508,515,516,508,503,507,515,515,508,503,508,515,516,508,503,507,514,515,508,503,508,515,516,508,503,507,514,515,507,503,508,515,516,508,503,507,515,515,508,503,508,515,516,508,503,507,515,516,508,503,508,515,516,508,503,507,514,515,508,503,507,515,516,508,503,507,514,515,508,503,507,515,516,508,503,507,514,515,508,504,508,515,516,508,503,507,514,515,508,504,508,515,516,508,503,507,515,516,508,503,507,515,516,508,503,507,514,516,508,504,507,515,516,508,503,507,514,515,508,503,507,515,516,508,503,507,514,515,508,503,507,515,516,508,503,507,514,515,508,503,507,515,516,508,503,507,514,515,508,503,507,515,516,508,503,507,514,516,508,503,507,515,516,508,503,507,514,515,508,503,507,515,516,508,503,507,514,515,508,503,507,515,516,508,503,507,514,515,508,503,507,515,516,508,503,507,514,516,508,503,507,514,516,508,503,507,514,516,508,503,507,514,516,508,503,506,514,516,508,503,507,515,516,509,503,507,514,516,508,503,507,514,516,508,503,507,514,516,508,503,507,514,516,508,503,506,514,516,509,503,507,514,516,509,503,506,514,516,508,503,507,514,516,509,503,506,514,516,508,503,507,514,516,509,503,506,514,516,509,503,507,514,516,509,503,506,514,516,508,503,507,514,516,508,503,506,514,516,508,503,507,514,516,509,503,506,513,516,508,503,507,514,516,509,503,506,514,516,509,503,507,514,516,509,503,506,514,516,509,503,507,514,516,509,503,506,514,516,509,503,507,514,516,509,503,506,513,516,509,503,507,514,516,509,503,506,514,516,509,503,506,514,516,509,503,506,513,516,509,503,506,514,516,509,503,506,514,516,509,503,506,514,516,509,503,506,513,516,509,504,507,514,516,509,503,506,513,516,509,503,506,514,516,509,503,506,513,516,509,504,507,514,516,509,503,506,513,516,509,503,506,514,516,509,503,506,513,516,509,503,506,514,516,509,503,506,513,516,509,503,506,514,516,509,503,506,513,516,509,503,506,514,516,509,503,506,513,516,509,504,505,513,518,514,507,502,501,500,500,504,512,518,515,506,503,508,515,515,507,503,508,515,515,507,503,507,515,515,507,503,508,515,516,507,503,508,515,515,507,503,508,515,516,507,503,508,515,515,507,504,508,515,515,507,503,508,515,515,507,504,508,515,515,507,503,508,515,515,508,504,508,515,515,507,503,508,515,515,507,504,508,516,515,507,503,508,515,515,507,503,508,516,516,508,503,508,515,515,507,504,508,515,515,507,504,508,515,515,507,504,509,515,513,505,503,510,518,517,507,503,508,516,516,507,503,507,515,515,507,503,508,516,516,507,503,507,515,516,507,503,508,516,516,507,503,507,515,516,507,503,508,516,516,507,503,507,515,515,507,503,508,516,516,507,503,507,515,515,507,503,508,516,516,507,503,507,515,516,507,503,508,516,516,507,503,507,515,516,507,503,508,516,516,507,503,507,515,516,507,503,508,516,516,507,503,507,515,516,507,503,508,516,516,507,503,507,515,516,507,503,508,516,516,508,503,507,515,516,507,503,508,516,516,507,502,507,515,516,507,503,508,516,516,508,503,507,515,516,507,503,507,515,516,508,503,507,515,516,507,503,507,516,516,508,503,507,515,516,507,503,507,515,516,508,503,507,515,516,508,503,507,515,516,508,503,507,515,516,508,503,507,515,516,508,503,507,515,516,508,503,507,516,516,508,503,507,515,516,508,503,507,515,516,508,503,507,515,516,508,503,507,515,516,508,503,507,515,516,508,503,507,515,516,508,503,507,515,516,508,503,507,515,516,508,503,507,515,516,508,503,507,515,516,508,503,507,515,516,508,503,507,515,517,508,503,507,515,516,508,503,507,515,517,508,503,507,515,516,508,503,507,515,517,508,503,507,515,516,508,503,507,515,517,508,503,507,515,516,508,504,506,514,519,513,507,503,502,501,500,505,513,518,514,506,503,509,516,515,506,503,509,517,515,506,503,509,516,515,506,503,509,517,515,506,503,509,516,515,506,503,509,517,515,506,502,507,515,515,507,503,509,516,515,506,503,508,515,515,506,503,509,516,515,506,503,508,516,515,506,503,509,516,515,506,503,508,515,514,506,503,509,516,515,506,503,508,516,515,507,503,509,516,515,506,503,508,515,515,507,503,509,516,515,507,503,508,515,515,507,504,509,516,515,507,503,508,515,515,507,503,509,516,515,507,503,508,515,515,507,504,509,516,515,507,503,508,515,515,507,503,508,516,515,507,503,508,515,515,507,504,509,516,515,507,503,508,515,515,507,504,508,516,515,507,503,508,515,515,507,504,508,516,515,507,503,508,515,515,507,504,508,516,515,507,503,508,515,515,507,504,508,516,515,507,503,508,515,515,507,504,508,516,516,508,503,508,515,515,508,504,508,514,514,508,507,513,520,517,507,503,509,517,516,507,503,508,516,516,507,503,509,516,516,507,503,508,516,515,507,503,508,516,515,507,503,507,515,515,507,503,508,516,515,506,502,507,515,515,506,503,508,515,515,506,502,507,515,515,506,503,508,515,515,506,502,507,515,515,507,503,508,515,515,506,502,507,515,515,506,503,508,515,515,506,502,507,515,515,507,503,506,514,518,512,508,504,504,502,500,506,513,518,513,505,503,509,516,513,505,503,510,517,514,505,503,509,516,513,505,503,509,517,514,505,503,509,516,514,505,503,510,517,514,505,503,509,516,514,505,503,509,517,514,505,503,509,516,514,505,503,509,517,514,505,503,509,516,514,505,503,509,517,514,505,503,509,516,513,505,503,509,517,514,505,503,509,516,514,505,503,510,517,514,505,503,509,516,514,505,503,510,517,514,505,503,509,516,514,505,503,510,517,514,505,503,509,516,514,505,503,510,517,514,505,503,509,516,514,506,503,510,517,514,505,503,509,516,514,506,503,510,517,515,506,503,509,516,514,506,504,510,517,515,506,503,509,516,514,506,504,510,517,515,506,503,509,516,514,506,503,510,517,515,506,503,509,516,515,506,504,510,517,515,506,503,509,516,515,506,503,510,518,516,506,501,507,515,514,506,503,507,516,519,513,509,506,506,504,502,507,514,517,512,505,504,511,516,513,505,505,510,514,512,506,509,516,520,513,504,504,512,518,513,504,504,511,517,513,504,504,511,517,513,504,503,510,517,513,504,504,511,517,513,504,504,510,517,513,505,504,511,517,513,505,504,511,517,513,505,505,511,517,513,504,504,511,517,512,504,504,512,517,513,504,504,511,517,513,505,504,511,517,513,504,504,511,517,513,505,504,511,517,513,505,504,510,517,513,505,504,511,518,515,505,503,510,516,514,506,504,511,517,513,505,504,510,516,513,505,505,511,516,513,505,504,510,516,513,505,504,511,517,514,505,504,510,517,513,505,504,511,517,513,505,504,510,516,513,505,505,511,517,513,505,504,510,516,513,505,504,511,517,514,505,504,510,516,513,505,504,511,517,514,505,504,510,516,513,505,505,511,517,514,505,504,510,516,513,506,506,511,516,512,504,504,511,517,514,505,504,511,517,513,505,504,510,516,513,505,504,511,517,513,504,503,510,516,513,505,504,511,517,513,504,503,510,516,513,505,504,510,517,513,504,503,510,516,513,504,504,510,517,513,504,503,510,516,513,504,503,510,516,513,504,503,509,516,513,504,503,510,516,513,504,503,509,516,513,505,503,510,516,513,505,503,509,516,513,505,504,510,516,514,505,503,509,516,513,505,504,510,516,513,505,503,509,516,513,505,504,510,516,513,505,503,509,516,513,505,504,510,516,513,505,503,509,516,514,506,504,510,516,513,505,503,509,516,513,505,504,510,516,514,505,503,509,516,513,505,504,510,516,513,505,503,509,516,513,505,504,510,516,514,505,503,509,516,513,505,504,510,516,513,505,504,509,515,513,505,504,510,516,513,505,504,510,516,513,505,504,510,517,513,504,503,510,516,513,505,503,510,517,514,505,503,509,516,514,505,504,510,517,514,505,503,510,517,514,506,503,507,516,518,513,510,508,507,504,502,508,515,518,511,504,504,512,517,512,504,505,512,518,512,504,504,512,518,513,505,504,512,518,513,505,504,511,517,513,505,505,512,517,512,504,504,511,517,512,505,505,512,517,512,504,504,511,516,512,504,504,511,516,512,504,504,511,516,512,504,504,511,516,512,504,504,510,515,511,505,506,512,515,509,502,505,512,517,512,503,504,512,517,512,503,504,511,517,512,504,504,512,517,512,504,504,511,517,512,504,504,512,517,512,504,504,511,517,512,504,504,512,517,512,504,504,511,517,512,504,504,512,517,512,504,504,511,517,512,504,504,512,517,512,504,504,511,517,512,504,504,512,518,513,504,503,511,517,513,505,504,511,517,513,504,504,511,517,513,504,504,511,517,513,505,504,511,517,513,505,505,511,517,513,505,504,511,517,513,505,505,512,517,513,505,504,511,517,513,505,505,511,517,513,505,504,511,517,513,505,505,512,517,513,505,504,511,517,513,505,505,511,517,513,505,504,511,517,513,505,505,512,517,513,505,504,511,517,513,505,505,511,517,513,505,505,511,517,513,505,505,511,517,513,505,504,511,517,513,505,505,511,517,513,505,504,511,517,513,505,505,511,517,513,505,504,511,517,513,505,505,511,517,513,505,504,511,517,513,506,505,511,517,514,505,505,511,517,513,505,505,511,517,513,505,505,511,517,513,506,505,511,517,513,505,504,511,517,513,505,505,511,517,514,505,504,511,517,513,506,505,511,517,514,505,504,511,517,514,506,505,511,517,514,505,504,511,517,514,506,505,511,517,514,505,504,511,517,513,505,505,511,517,514,505,504,511,517,514,506,505,511,517,514,505,504,511,517,514,506,505,511,517,514,505,504,510,517,514,506,505,511,517,514,505,504,510,516,514,506,505,511,517,514,505,504,511,517,513,506,505,511,517,514,505,504,511,517,514,505,504,511,517,514,505,504,510,517,514,506,505,511,517,514,505,504,510,516,514,506,505,510,517,514,506,505,511,516,513,505,505,511,516,513,505,505,511,517,513,505,505,511,517,514,505,504,510,517,514,505,504,511,517,514,505,504,510,517,514,505,504,511,517,514,506,504,510,517,514,506,504,511,517,514,506,504,510,516,514,506,505,511,517,514,506,504,510,517,514,506,505,511,517,514,506,504,510,516,514,506,504,511,517,514,506,504,510,516,514,506,505,511,517,514,506,504,510,517,514,506,505,511,517,514,506,504,510,517,514,506,504,510,517,514,506,504,510,516,514,506,505,510,517,514,506,504,510,516,514,506,505,511,517,514,506,504,510,516,514,506,505,511,517,514,506,504,510,516,514,506,504,510,517,514,506,504,510,517,514,506,504,510,517,514,506,504,510,516,514,506,504,510,517,514,506,504,510,516,514,506,504,510,517,514,506,504,510,516,514,506,504,510,517,514,506,504,510,516,514,506,504,510,517,514,506,504,510
