512,512,512,512,512,512,512,512,512,512,512,512,512,512,512,512,512,512,512,512,512,512,512,512,512,512,512,512,512,512,512,512,512,512,512,512,512,512,512,512,512,512,512,512,512,512,512,512,512,512,512,512,512,512,512,512,512,512,512,512,512,512,512,512,512,512,512,512,512,512,512,512,512,512,512,512,512,512,512,512,512,512,512,512,512,512,512,512,512,512,512,512,512,512,512,512,512,512,512,512,512,512,512,512,512,512,512,512,512,512,512,512,512,512,512,512,512,513,513,513,512,512,513,512,512,512,512,512,512,512,512,512,512,512,512,512,512,512,512,512,512,512,512,513,512,512,512,512,512,512,512,512,512,512,512,512,512,512,512,512,512,512,512,512,512,512,512,512,512,512,512,512,512,512,512,512,512,512,512,512,512,512,512,512,512,512,512,512,512,512,512,512,512,512,512,512,512,512,512,512,512,512,512,512,512,512,512,512,512,512,512,512,513,512,512,512,512,512,512,512,512,512,513,512,512,512,512,512,512,512,512,512,512,512,512,512,512,513,512,512,512,512,512,512,512,512,512,512,512,512,512,512,512,512,512,512,512,512,512,512,512,512,512,512,512,512,512,512,512,512,512,512,513,512,512,512,512,513,513,512,512,512,512,512,512,512,512,513,512,512,512,512,513,513,512,512,512,512,512,512,512,513,513,513,512,512,512,512,512,512,512,512,512,512,512,512,512,512,512,512,512,512,512,512,512,512,512,512,512,512,512,512,512,512,512,512,512,512,512,512,512,512,512,512,512,512,512,512,512,512,512,512,513,513,512,512,512,512,512,512,512,512,512,512,512,512,512,512,512,512,512,512,512,512,512,512,512,512,512,512,512,512,512,512,512,512,512,513,513,512,512,512,512,512,512,512,512,512,512,512,512,512,512,512,512,512,512,513,512,512,512,512,512,512,512,512,512,512,512,512,512,512,512,512,512,512,512,512,512,512,512,512,512,512,512,512,513,513,512,512,512,512,512,512,512,513,513,513,512,512,512,512,512,512,512,512,512,513,513,512,512,513,513,513,513,513,513,513,512,512,512,513,513,512,512,512,512,512,512,512,512,512,512,512,512,512,512,513,512,512,512,512,512,512,512,512,513,513,513,512,512,513,513,512,512,512,513,513,512,512,512,513,513,512,512,512,512,512,512,512,512,512,513,513,512,513,513,513,512,512,512,512,513,512,512,512,512,512,512,512,512,512,513,512,512,512,512,512,512,512,512,512,512,512,512,512,512,512,512,512,512,512,513,512,512,512,512,512,512,512,512,512,512,512,512,512,512,512,512,512,512,512,512,512,512,512,512,512,512,512,512,512,512,512,512,512,512,512,512,512,512,512,512,512,512,512,512,512,512,512,512,512,512,512,512,512,512,512,512,512,512,512,512,512,512,512,512,512,512,512,512,512,512,512,512,512,512,512,512,512,512,512,512,512,512,512,513,512,512,512,512,512,512,512,512,512,512,512,512,512,512,512,512,512,512,512,512,512,512,512,512,512,512,512,512,512,512,512,512,512,512,512,512,512,512,512,512,512,512,512,512,512,512,512,512,512,512,512,512,512,512,512,512,512,512,512,512,512,512,512,512,512,512,512,512,512,512,512,512,512,512,512,512,512,512,512,512,512,512,512,512,512,512,512,512,512,512,512,512,512,512,512,512,512,512,512,512,512,512,512,512,512,512,512,512,512,512,512,512,512,512,512,512,512,512,512,512,512,512,512,512,512,512,512,512,512,512,512,512,512,512,512,512,512,512,512,512,512,512,512,512,512,512,512,512,512,512,512,512,512,512,512,512,512,512,512,512,512,512,512,512,512,512,512,511,512,512,512,512,512,512,512,512,512,512,512,512,512,512,512,512,512,512,512,512,512,512,512,512,511,511,512,512,512,511,511,511,511,511,511,511,512,511,511,511,511,511,511,511,511,511,511,511,511,511,511,511,511,511,511,511,511,511,511,511,511,511,511,511,511,511,511,511,511,511,511,511,511,511,511,511,511,511,511,511,511,511,511,511,511,511,511,511,511,511,511,511,511,511,511,511,511,511,511,511,511,511,511,511,511,511,511,511,511,511,511,511,511,511,511,511,511,511,511,511,512,512,512,509,505,497,486,471,452,432,409,384,357,325,286,239,186,135,94,69,60,62,69,74,75,74,74,74,74,74,74,74,74,74,74,74,74,74,74,74,74,74,74,74,74,74,74,74,74,74,74,74,74,74,74,74,74,74,74,74,74,74,74,74,74,74,74,74,74,74,74,74,74,74,74,74,74,74,74,74,74,74,74,74,74,74,74,74,74,74,74,74,74,74,74,74,74,74,74,74,74,74,74,74,74,74,74,74,74,74,74,74,74,74,74,74,74,74,74,74,74,74,74,74,74,74,74,74,74,74,74,74,74,74,74,74,74,74,74,74,74,74,74,74,74,74,74,74,74,74,74,74,74,74,74,74,74,74,74,74,74,74,74,74,74,74,74,74,74,74,74,74,74,74,74,74,74,74,74,74,74,74,74,74,74,74,74,74,74,74,74,74,74,74,74,74,74,74,74,74,74,74,74,74,74,74,74,74,74,74,74,74,74,74,74,74,74,74,74,74,74,74,74,74,74,74,74,74,74,74,74,74,74,74,74,74,74,74,74,74,74,74,74,74,74,74,74,74,74,74,74,74,74,74,74,74,74,74,74,74,74,74,74,74,74,74,74,74,74,74,74,74,74,74,74,74,74,74,74,74,74,74,74,74,74,74,74,74,74,74,74,74,74,74,74,74,74,74,74,74,74,74,74,74,74,74,74,74,74,74,74,74,74,74,74,74,74,74,74,74,74,74,74,74,74,74,74,74,74,74,74,74,74,74,74,74,74,74,74,74,74,74,74,74,74,74,74,74,74,74,74,74,74,74,74,74,74,74,74,74,73,73,74,76,79,83,86,89,92,95,98,101,104,106,106,106,105,104,105,106,108,110,113,115,117,119,122,124,127,130,133,136,138,141,144,147,150,153,155,158,161,164,166,169,172,175,177,180,182,184,186,189,191,193,195,197,199,202,204,206,209,211,213,215,217,219,221,224,226,228,231,233,235,237,239,240,242,244,246,248,250,252,254,255,257,259,261,263,265,267,268,270,272,273,275,277,279,281,282,284,286,287,288,290,291,293,294,296,297,298,299,301,302,303,305,307,309,310,312,313,315,317,318,320,322,324,325,327,328,329,330,331,332,333,334,336,337,338,339,340,342,343,344,345,346,348,349,350,352,353,354,356,357,359,360,362,364,366,368,369,371,373,375,377,379,381,382,384,385,386,387,389,391,394,397,402,407,413,419,426,435,447,459,471,481,490,498,506,516,528,539,548,553,554,554,553,552,552,552,553,555,558,560,563,565,568,571,573,575,575,574,574,575,580,587,595,602,607,610,611,610,608,606,602,598,594,589,584,579,575,571,569,569,570,573,577,582,586,591,596,603,611,620,630,640,648,655,660,666,671,677,683,689,696,702,707,711,714,716,718,718,718,717,715,713,711,709,707,705,703,700,696,691,685,679,673,668,663,658,652,646,641,636,632,628,624,620,617,613,610,609,608,609,610,612,613,614,615,616,615,614,612,609,606,603,599,594,590,585,581,576,572,569,566,563,560,558,556,554,552,550,548,547,545,544,543,543,542,542,543,545,550,557,566,575,583,590,594,597,598,599,599,600,599,599,599,599,598,597,596,595,594,593,591,590,588,586,584,581,575,565,552,536,522,513,508,508,509,510,510,509,508,507,506,505,504,504,503,503,502,501,501,500,499,498,498,497,496,495,494,493,493,492,492,492,491,491,492,492,492,492,493,493,494,494,494,495,495,496,497,497,498,499,499,500,501,501,501,501,500,499,498,497,496,496,496,497,500,502,505,506,507,508,508,508,509,509,510,510,510,510,510,509,509,509,509,509,509,509,509,509,509,510,510,510,510,510,510,511,511,511,509,506,503,500,500,502,508,515,525,536,548,559,564,557,535,497,453,411,378,358,345,336,324,309,291,272,254,240,228,221,217,216,216,218,220,223,226,228,231,234,237,240,243,245,248,250,252,254,256,258,260,261,263,265,267,269,272,275,278,281,284,287,290,293,296,300,303,306,310,313,316,320,323,327,330,335,339,343,347,351,354,356,358,360,361,362,363,365,367,370,372,375,378,379,381,383,385,387,389,393,397,401,407,413,418,423,427,429,431,433,435,437,440,442,444,446,448,450,453,455,459,462,465,469,473,476,480,485,490,495,500,505,510,514,518,520,522,523,523,523,524,526,528,530,530,528,523,517,511,505,500,495,491,488,485,483,481,480,479,479,480,481,483,485,485,485,483,481,478,476,474,473,473,473,474,476,479,483,488,492,497,501,504,507,509,511,512,512,512,512,512,511,510,509,507,505,502,498,495,491,488,485,483,483,484,487,489,492,495,496,498,500,502,504,506,508,510,511,510,506,500,491,481,472,464,458,453,450,447,445,442,440,437,434,433,432,431,431,432,432,433,434,435,436,437,438,438,439,439,439,438,438,438,437,437,437,438,438,439,440,441,441,442,443,443,444,445,446,446,447,448,448,449,450,450,451,451,451,451,452,452,452,453,453,454,454,455,455,456,456,457,457,458,458,458,459,459,459,459,460,460,460,461,461,461,462,462,463,463,463,464,464,464,465,465,465,466,466,466,466,467,467,467,468,468,468,469,469,469,469,470,470,470,471,471,472,472,472,473,473,474,474,475,475,475,476,476,477,477,478,478,478,479,479,479,479,480,480,481,481,482,482,483,483,484,485,486,486,487,488,488,489,490,490,491,491,492,492,493,493,494,494,494,494,495,495,495,495,496,496,496,497,497,497,498,498,499,499,499,500,500,500,501,501,501,501,501,501,502,502,502,502,502,503,503,503,503,503,504,504,504,504,505,505,505,505,505,506,506,506,506,506,506,506,506,507,507,507,507,507,508,508,508,508,509,509,509,509,509,510,510,510,510,510,510,510,511,511,511,511,511,511,511,511,511,511,511,511,511,512,512,512,512,513,513,514,514,515,515,516,516,517,517,518,519,519,520,521,522,523,524,526,528,530,532,534,535,536,538,539,540,541,541,543,544,546,549,552,555,558,562,565,568,572,575,579,584,588,592,596,598,600,600,600,598,597,596,597,599,603,608,614,620,625,630,635,638,640,642,643,644,646,648,650,651,649,645,640,634,628,624,620,618,615,613,610,606,603,600,598,595,593,592,590,589,588,587,586,585,584,584,583,583,583,583,582,581,580,579,577,577,577,578,580,583,588,594,602,613,626,640,654,666,676,683,688,691,692,691,687,682,676,667,658,649,640,632,626,623,620,618,616,613,611,609,607,605,602,599,596,593,591,589,587,586,585,584,584,583,582,581,579,578,578,577,576,575,574,573,572,571,570,569,568,567,566,566,565,564,563,563,562,561,560,559,559,558,557,557,556,555,555,555,555,555,555,556,558,559,560,561,561,562,562,562,561,560,559,557,555,552,550,548,547,546,546,546,547,549,550,552,554,557,559,562,564,565,567,567,567,567,566,566,565,564,562,561,560,559,559,559,559,560,560,559,559,559,560,560,561,561,561,562,562,562,562,560,558,555,552,548,543,539,535,531,529,526,525,524,524,524,524,524,525,525,526,526,527,528,528,529,529,529,529,529,529,528,527,527,526,525,525,524,524,524,524,524,523,523,523,524,525,528,531,534,535,536,536,536,535,534,532,530,527,525,524,523,524,525,525,526,527,528,529,532,535,538,541,544,546,547,547,547,546,546,546,546,546,546,546,545,544,544,543,543,542,541,540,538,536,534,532,531,529,527,524,519,514,509,506,505,506,508,509,510,510,509,509,508,506,505,503,502,501,501,501,501,500,499,498,498,497,497,497,497,497,497,497,498,498,499,499,500,500,501,501,502,502,502,503,503,504,505,506,508,510,512,514,518,523,530,537,546,553,560,566,570,574,577,580,582,583,584,584,584,583,583,584,585,586,586,586,586,587,589,592,596,601,606,610,613,615,616,616,617,620,624,627,629,629,625,619,612,605,600,597,595,592,588,584,581,581,583,587,591,595,598,602,604,607,608,610,611,613,615,616,616,614,613,612,614,620,628,637,646,652,655,653,646,635,617,594,564,530,495,463,438,421,411,407,407,413,426,445,469,494,517,537,553,566,575,588,602,610,599,560,494,415,345,298,277,274,277,279,276,274,273,273,273,274,276,278,281,283,286,288,291,293,295,297,298,299,300,301,302,303,304,306,307,309,311,313,315,318,320,322,324,325,326,327,328,329,330,333,335,338,341,344,347,349,352,354,356,359,361,364,367,369,371,373,375,377,379,380,381,382,382,382,382,381,380,380,379,379,379,379,379,380,380,380,380,381,380,380,380,381,382,383,383,384,384,384,385,386,388,390,393,395,396,396,397,397,398,400,400,400,399,398,397,398,399,401,403,405,406,408,409,411,412,414,416,418,420,422,423,424,426,428,430,431,432,431,430,428,428,428,430,432,433,434,434,434,432,430,427,424,423,424,425,427,429,431,433,435,436,439,441,443,445,447,448,451,454,457,461,463,465,465,464,463,462,462,462,463,464,466,468,470,472,474,476,477,479,481,483,487,490,495,499,502,504,505,505,504,502,500,499,498,497,497,496,495,494,493,491,490,489,488,487,487,486,485,485,485,485,485,486,487,487,488,490,491,493,496,498,501,503,505,506,507,507,507,506,506,505,504,504,503,502,501,501,501,501,501,501,501,501,501,501,502,502,502,502,502,501,500,499,497,496,495,495,495,495,495,495,495,495,494,494,493,493,493,493,494,494,494,494,494,494,494,494,495,495,495,495,495,496,496,497,498,498,498,498,498,497,497,497,498,500,504,507,493,469,457,487,577,713,855,958,1001,994,968,947,940,949,949,949,949,949,949,949,949,949,949,949,949,949,949,949,949,949,949,949,949,949,949,949,949,949,949,949,949,949,949,949,949,949,949,949,949,949,949,949,949,949,949,949,949,949,949,949,949,949,949,949,949,949,949,949,949,949,949,949,949,949,949,949,949,949,949,949,949,949,949,949,949,949,949,949,949,949,949,949,949,949,949,949,949,949,949,949,949,949,949,949,949,949,949,949,949,949,949,949,949,949,949,949,949,949,949,949,949,949,949,949,949,949,949,949,949,949,949,949,949,949,949,949,949,949,949,949,949,949,949,949,949,949,949,949,949,949,949,949,949,949,949,949,949,949,949,949,949,949,949,949,949,949,949,949,949,949,949,949,949,949,949,949,949,949,949,949,949,949,949,949,949,949,949,949,949,949,949,949,949,949,949,949,949,949,949,949,949,949,949,949,949,949,949,949,949,949,949,949,949,949,949,949,949,949,949,949,949,949,949,949,949,949,949,949,949,949,949,949,949,949,949,949,949,949,949,949,949,949,949,949,949,949,949,949,949,949,949,949,949,949,949,949,949,949,949,949,949,949,949,949,949,949,949,949,949,949,949,949,949,949,949,949,949,949,949,949,949,949,949,949,949,949,949,949,949,949,949,949,949,949,949,949,949,949,949,949,949,949,949,949,949,949,949,949,949,949,949,949,949,949,949,949,949,949,949,949,949,949,949,949,949,949,949,949,949,949,949,949,949,949,949,949,949,949,949,949,949,949,949,949,949,949,949,949,949,949,949,949,949,949,949,949,949,949,949,949,949,949,949,949,949,949,949,949,949,949,949,949,949,949,949,949,949,949,949,949,949,949,949,949,949,949,949,949,949,949,949,949,949,949,949,949,949,949,949,949,949,949,949,949,949,949,949,949,949,949,949,949,949,949,949,949,949,949,949,949,949,949,949,949,949,949,949,949,949,949,949,949,949,949,949,949,949,949,949,949,949,949,949,949,949,949,949,949,949,949,949,949,949,949,949,949,949,949,949,949,949,949,949,949,949,949,949,949,949,949,949,949,949,949,949,949,949,949,949,949,949,949,949,949,949,949,949,949,949,949,949,949,949,949,949,949,949,949,949,949,949,949,949,949,949,949,949,949,949,949,949,949,949,949,949,949,949,949,949,949,949,949,949,949,949,949,949,949,949,949,949,949,949,949,949,949,949,949,949,949,949,949,949,949,949,949,949,949,949,949,949,949,949,949,949,949,949,949,949,949,949,949,949,949,949,949,949,949,949,949,949,949,949,949,949,949,949,949,949,949,949,949,949,949,949,949,949,949,949,949,949,949,949,949,949,949,949,949,949,949,949,949,949,949,949,949,949,949,949,949,949,949,949,949,949,949,949,949,949,949,949,949,949,949,949,949,949,949,949,949,949,949,949,949,949,949,949,949,949,949,949,949,949,949,949,949,949,949,949,949,949,949,949,949,949,949,949,949,949,949,949,949,949,949,949,949,949,949,949,949,949,949,949,949,949,949,949,949,949,949,949,949,949,949,949,949,949,949,949,949,949,949,949,949,949,949,949,949,949,949,949,949,949,949,949,949,949,949,949,949,949,949,949,949,949,949,949,949,949,949,949,949,949,949,949,949,949,949,949,949,949,949,949,949,949,949,949,949,949,949,949,949,949,949,949,949,949,949,949,949,949,949,949,949,949,949,949,949,949,949,949,949,949,949,949,949,949,949,949,949,949,949,949,949,949,949,949,949,949,949,949,949,949,949,949,949,949,949,949,949,949,949,949,949,949,949,949,949,949,949,949,949,949,949,949,949,949,949,949,949,949,949,949,949,949,949,949,949,949,949,949,949,949,949,949,949,949,949,949,949,949,949,949,949,949,949,949,949,949,949,949,949,949,949,949,949,949,949,949,949,949,949,949,949,949,949,949,949,949,949,949,949,949,949,949,949,949,949,949,949,949,949,949,949,949,949,949,949,949,949,949,949,949,949,949,949,949,949,949,949,949,949,949,949,949,949,949,949,949,949,949,949,949,949,949,949,949,949,949,949,949,949,949,949,949,949,949,949,949,949,949,949,949,949,949,949,949,949,949,950,949,949,947,946,944,941,939,936,935,933,932,931,930,928,926,923,919,916,914,912,910,906,903,899,896,896,896,897,896,894,891,888,884,881,878,876,874,873,872,870,867,865,863,862,860,859,856,854,853,854,856,855,851,843,836,832,833,835,835,832,825,816,810,806,804,803,802,799,797,795,794,793,791,787,783,780,779,780,782,782,781,778,775,773,771,769,766,762,759,758,758,758,756,750,742,735,735,747,771,801,826,832,815,780,738,706,693,696,708,721,728,731,731,730,730,730,729,727,725,723,722,721,721,721,723,726,729,730,729,725,719,713,710,710,711,713,713,712,710,708,707,707,707,708,708,708,708,708,708,708,708,707,706,705,705,704,703,702,701,700,699,697,695,693,691,688,685,682,679,676,673,671,669,668,666,663,661,659,657,657,657,657,658,657,656,655,653,652,652,651,651,651,651,652,653,653,653,652,652,652,652,652,652,651,650,649,648,649,651,653,654,654,653,652,651,650,649,648,648,648,648,648,648,647,647,647,648,650,651,652,653,653,653,653,653,653,654,654,653,652,651,650,650,651,653,654,655,655,654,653,653,652,651,650,649,648,648,648,648,647,646,646,646,646,647,646,645,644,642,640,639,639,639,639,640,640,641,642,642,644,644,645,644,642,641,639,639,638,638,637,636,636,635,635,635,635,634,634,634,634,634,634,633,633,632,631,631,629,626,620,613,611,616,635,665,697,720,722,702,667,630,604,594,597,606,614,619,622,623,623,622,622,622,623,622,622,620,619,618,617,615,614,612,611,610,609,609,609,609,609,609,609,609,608,607,606,605,605,605,605,605,605,605,606,607,608,610,611,611,611,610,609,608,607,606,606,606,606,606,606,604,602,601,599,597,596,595,593,592,591,590,589,588,587,586,585,584,583,582,582,582,583,583,583,583,583,582,582,582,583,583,583,583,583,582,582,582,582,583,584,584,584,583,582,582,581,581,581,581,580,579,579,579,578,578,578,578,577,577,576,576,577,577,577,577,576,576,576,575,575,574,573,573,573,572,572,572,571,570,570,570,569,569,569,569,568,568,568,567,567,567,566,565,565,564,564,563,562,562,561,561,562,562,562,561,559,558,557,556,555,555,555,556,557,558,559,559,560,560,561,561,561,561,560,559,558,557,556,556,555,554,554,554,553,553,554,553,553,553,552,552,550,547,541,533,528,530,543,570,602,629,638,626,597,563,537,525,526,532,538,540,541,541,542,542,543,543,542,541,540,540,540,540,541,542,542,542,542,543,543,543,543,543,544,545,546,546,547,547,547,548,548,548,549,550,552,553,554,555,556,556,558,559,561,562,562,562,561,560,559,557,557,556,557,556,555,553,551,549,547,546,545,544,544,544,543,543,542,541,540,539,538,538,537,537,537,537,537,537,537,537,537,537,538,538,538,538,538,538,538,538,538,537,536,535,534,533,532,532,531,531,531,531,532,533,533,532,531,530,529,529,530,531,532,532,531,528,524,520,516,515,515,517,518,517,516,516,517,521,525,529,531,533,533,533,532,532,532,531,532,533,534,535,536,535,535,535,536,537,537,538,537,537,536,536,536,535,535,534,533,532,531,530,530,529,528,528,527,527,528,527,523,516,508,502,504,519,548,583,611,621,607,577,542,516,506,509,517,526,530,533,535,536,536,537,537,537,537,537,538,539,540,540,540,540,539,539,538,538,538,539,539,540,540,541,541,542,543,543,544,545,545,546,546,547,548,549,550,551,553,554,554,554,554,553,554,554,555,555,554,554,553,553,552,551,549,547,545,544,542,541,540,540,539,539,538,537,537,536,536,536,537,537,538,539,539,540,540,540,541,542,542,543,543,544,544,545,545,546,546,546,546,546,546,546,546,546,545,545,546,546,546,546,545,545,544,544,544,545,545,545,545,544,544,544,544,544,545,545,546,546,545,545,545,544,545,545,546,546,546,546,546,546,545,545,546,546,546,546,546,546,546,547,548,549,549,548,547,546,545,545,545,545,545,545,545,545,545,546,546,547,547,547,546,544,540,534,527,524,529,546,575,608,632,637,619,584,547,519,508,510,518,527,532,535,538,539,540,541,541,541,541,541,541,541,541,541,541,541,541,541,540,540,540,541,541,541,541,541,542,542,543,543,543,543,543,543,545,547,549,550,551,552,553,554,555,556,557,558,559,559,559,559,559,558,557,555,554,553,551,550,549,547,545,543,541,540,540,539,538,537,535,534,534,533,533,534,534,535,535,536,536,536,536,536,537,538,538,539,539,539,539,539,539,540,540,540,540,540,540,540,540,540,540,541,541,541,541,542,542,542,542,542,542,542,542,542,543,543,542,542,542,542,543,543,543,543,543,543,543,543,544,543,543,542,541,540,541,541,542,542,542,542,541,540,540,541,541,542,544,544,543,539,533,526,522,526,541,569,599,623,627,610,577,541,515,505,508,517,526,532,536,538,539,539,538,538,538,538,538,538,539,539,539,540,540,540,540,539,539,539,539,540,540,541,541,542,542,542,542,543,544,545,545,545,544,544,544,545,547,548,549,549,550,550,551,551,551,550,549,548,547,546,545,544,543,541,540,538,537,536,534,534,533,532,531,530,529,528,528,527,527,527,528,528,528,529,529,529,529,529,530,530,531,531,531,531,531,531,531,531,531,531,531,531,531,531,530,530,529,529,528,528,528,528,528,528,528,527,526,525,524,524,525,525,526,526,526,526,527,527,528,528,528,527,526,525,524,524,523,523,524,524,524,523,523,523,523,524,524,524,524,522,519,513,506,500,500,512,536,568,598,613,605,578,542,511,493,490,497,505,511,515,517,518,519,520,520,520,520,520,520,521,521,521,521,520,520,520,521,521,521,521,521,521,522,522,523,523,523,523,524,524,525,525,526,527,528,529,530,531,532,533,534,535,535,536,537,537,536,535,534,533,531,530,529,527,525,524,522,520,519,518,517,517,516,515,514,513,512,512,512,512,512,512,511,511,511,512,512,512,513,513,513,512,512,512,513,513,513,513,513,513,513,513,514,514,514,514,513,513,513,513,513,514,514,514,514,514,514,515,516,517,518,519,518,518,517,516,515,515,514,514,514,515,514,514,514,514,514,514,514,514,514,514,514,513,511,506,499,493,491,499,519,549,579,598,598,578,547,519,501,494,496,501,504,506,507,508,509,509,509,509,509,508,508,508,507,506,505,504,504,504,505,505,506,506,505,505,505,504,504,504,504,504,505,505,506,506,507,508,509,510,511,512,513,513,513,514,515,515,516,516,516,515,514,514,513,512,512,511,509,508,507,506,505,504,503,503,502,502,502,501,501,500,500,500,500,500,501,501,501,501,501,501,501,501,501,502,502,503,503,503,503,503,504,504,505,505,505,505,505,505,505,505,505,505,504,504,504,505,505,506,506,507,507,507,507,507,506,506,506,506,506,506,506,506,507,506,506,506,506,506,507,507,507,506,505,501,496,491,489,495,513,542,574,594,593,569,529,490,464,456,463,476,488,496,501,504,506,507,509,509,510,510,510,510,510,511,512,512,513,513,514,514,514,515,516,517,517,518,518,518,518,518,518,519,520,521,522,523,523,524,525,525,526,527,528,529,530,530,530,530,530,530,529,529,528,527,526,525,525,524,523,522,520,519,517,516,515,514,514,514,513,513,513,514,514,515,515,515,515,515,516,516,516,516,516,517,517,517,517,517,517,517,517,517,517,517,517,517,517,518,518,519,519,519,519,519,520,520,521,521,521,520,519,519,518,518,519,519,519,520,520,520,519,520,520,521,522,522,519,514,507,499,497,506,528,559,589,605,600,575,541,511,494,491,497,506,512,514,515,515,516,516,517,517,517,517,516,516,516,516,516,517,517,517,517,517,517,516,517,517,517,518,518,518,519,519,520,521,522,523,523,524,524,525,526,526,527,527,527,527,527,527,527,526,526,526,525,524,523,521,520,520,519,519,518,516,515,514,513,513,512,512,512,511,511,511,510,510,509,509,509,509,510,510,510,510,510,509,509,509,508,508,508,508,508,508,508,507,507,507,507,507,508,508,509,509,509,509,509,509,509,508,507,505,504,504,504,504,504,503,502,500,499,498,498,498,498,497,495,495,495,493,490,485,481,480,488,509,539,570,589,587,563,526,491,468,462,468,478,488,494,497,499,501,501,502,502,503,503,504,504,504,504,504,505,506,506,505,504,502,501,499,499,498,497,496,494,493,493,495,496,497,497,496,496,497,499,500,502,504,504,504,503,502,501,502,503,503,503,502,500,498,497,497,496,494,492,491,490,490,489,488,487,486,486,486,486,486,486,486,486,487,488,488,489,490,492,494,496,498,498,497,497,498,500,501,502,502,501,500,500,501,501,501,501,501,501,501,502,503,504,504,504,505,505,507,508,509,509,508,506,503,502,501,503,504,505,504,502,500,498,497,497,497,497,496,494,492,487,481,477,478,489,512,542,570,582,574,548,515,488,474,472,478,485,489,492,493,495,495,495,495,495,495,494,493,492,491,491,492,492,491,491,490,490,491,491,492,491,491,491,492,493,494,496,497,498,498,497,497,498,499,500,501,502,502,503,502,501,500,499,499,499,501,502,501,500,497,494,493,492,493,493,492,491,489,488,486,484,483,482,482,483,483,483,482,481,482,483,484,485,486,485,484,482,482,483,484,486,487,488,488,487,486,484,483,483,483,483,484,485,485,485,485,485,486,487,488,490,492,492,492,491,489,488,487,487,488,489,491,492,491,490,489,489,489,489,489,490,490,491,492,494,495,494,490,483,477,473,479,498,528,559,581,581,560,527,493,471,464,469,477,485,490,493,495,497,498,498,499,499,499,499,499,499,499,499,500,500,501,502,502,503,504,504,505,505,505,505,506,507,508,509,510,511,512,512,513,515,516,517,518,519,519,520,520,520,520,520,521,521,522,522,522,520,519,517,516,515,514,513,512,511,510,509,508,508,507,507,506,506,506,506,505,505,505,505,505,506,506,507,507,508,508,508,508,508,508,508,508,508,508,508,508,508,508,508,508,508,508,507,507,506,506,505,506,506,507,507,508,508,508,508,508,509,509,509,508,507,506,505,505,505,505,506,506,506,506,506,506,506,506,507,507,508,507,505,501,495,490,489,499,520,549,577,591,585,561,528,499,482,479,486,495,501,505,507,507,507,507,507,507,508,508,509,509,509,509,509,509,509,509,509,509,509,509,510,510,510,511,511,511,511,511,511,510,510,510,511,512,513,515,516,517,518,518,519,519,520,520,521,521,520,520,519,519,518,517,516,515,514,514,513,512,511,511,510,510,509,509,509,509,508,508,507,507,507,507,508,508,507,506,506,505,505,505,505,505,505,505,504,504,504,504,504,504,504,504,504,504,504,504,504,504,504,503,503,503,503,503,503,503,502,502,502,501,501,501,501,500,501,501,502,502,502,503,503,504,504,504,504,503,502,501,501,501,501,501,500,500,500,500,500,500,500,500,501,501,501,501,499,496,490,484,481,484,500,528,560,585,592,576,542,504,475,461,462,470,480,486,491,494,496,499,501,502,503,504,504,504,504,504,504,504,504,505,505,505,505,505,505,505,505,506,506,506,506,506,507,507,507,508,509,509,510,512,513,514,515,516,516,516,516,515,515,515,514,513,512,511,510,509,508,507,505,504,503,502,501,500,499,498,498,497,496,495,495,495,494,495,495,495,495,495,496,496,496,496,496,496,497,497,497,498,498,498,497,497,496,496,495,495,495,495,496,496,496,496,496,495,495,495,496,495,495,495,495,495,496,496,496,496,496,495,496,496,496,495,495,494,494,494,495,497,498,498,498,499,499,500,501,502,502,501,500,499,498,498,498,499,499,499,499,499,499,498,499,499,499,499,499,498,496,491,486,481,482,494,518,551,580,593,582,552,514,483,467,465,473,484,491,495,497,498,498,499,499,499,499,499,499,500,500,501,501,501,501,501,501,501,501,501,502,502,503,503,504,504,504,505,505,506,507,509,510,511,512,513,513,514,515,516,516,517,517,518,518,518,518,517,517,517,516,516,515,514,513,512,512,511,510,509,508,508,507,507,506,506,506,506,505,505,505,505,505,505,505,505,506,506,506,506,506,506,507,507,507,507,507,506,506,506,506,506,506,506,507,507,507,507,507,507,507,507,507,507,507,507,506,506,506,506,506,505,505,505,505,506,506,505,505,505,505,506,506,506,506,507,507,507,508,508,508,509,509,510,510,509,509,508,508,507,506,506,506,506,507,507,508,508,507,507,507,507,507,508,507,506,503,498,491,485,486,497,521,553,582,595,586,559,524,495,479,477,483,491,496,499,500,501,501,502,501,502,502,502,502,502,502,502,502,502,502,502,503,503,503,504,504,504,504,505,505,505,506,506,507,508,509,509,510,511,511,512,513,514,515,516,517,518,518,518,518,518,518,517,516,516,515,515,514,514,513,512,512,511,510,509,508,507,506,506,505,505,504,504,504,504,505,505,505,505,505,505,505,506,507,507,508,508,508,508,508,508,508,508,508,508,508,507,507,506,506,506,506,506,507,507,507,507,507,508,508,508,508,508,509,509,509,508,508,508,508,507,507,507,507,507,507,508,508,509,509,509,510,511,511,512,512,511,510,509,509,508,508,508,509,509,509,509,509,509,509,509,510,510,510,509,507,504,498,492,490,497,516,544,574,594,593,570,536,502,480,473,477,486,494,499,502,504,504,505,506,506,507,507,507,506,506,506,506,506,507,507,507,507,507,507,508,508,508,508,508,509,509,509,509,510,510,511,512,513,514,516,517,518,519,519,520,520,521,521,521,520,519,518,516,516,515,514,513,513,512,512,511,510,509,508,508,507,507,507,507,507,507,507,507,507,507,507,507,506,506,506,506,506,507,507,507,508,508,508,508,509,509,509,509,510,510,510,510,510,510,510,510,509,509,509,509,509,509,509,509,509,509,509,508,508,508,509,509,509,508,507,506,505,504,505,505,506,506,507,507,508,508,509,509,509,508,507,506,506,506,506,506,505,505,505,505,506,506,506,506,506,506,506,506,504,500,495,489,486,492,510,538,569,590,591,568,531,494,469,460,465,476,487,494,498,500,502,502,503,503,504,504,504,504,504,504,504,504,505,505,506,506,507,507,507,508,508,508,508,508,509,509,510,511,512,512,513,513,515,516,516,517,518,518,519,520,521,521,521,521,521,521,520,519,519,518,517,516,515,514,513,512,511,510,509,508,507,506,505,504,504,504,504,504,504,505,506,506,507,507,508,508,508,508,509,509,509,509,509,510,510,509,509,509,508,508,508,508,508,508,508,507,507,507,507,507,507,507,506,506,505,505,505,505,506,507,507,508,508,508,508,509,510,510,510,510,509,508,508,508,508,508,509,509,509,509,509,508,509,509,509,510,510,509,507,502,496,491,490,499,520,550,578,592,584,557,522,492,476,475,482,492,500,504,506,507,508,508,508,508,509,509,509,510,510,510,510,510,510,510,510,510,510,511,511,511,512,512,512,513,513,514,515,516,516,517,518,518,519,520,521,522,523,523,524,524,524,524,524,524,523,523,522,521,520,519,518,518,517,516,515,514,513,512,512,511,510,509,508,508,508,507,507,507,507,507,507,508,508,508,508,508,508,508,508,508,508,508,508,508,508,508,508,508,508,508,508,509,509,510,510,510,510,510,509,509,509,509,509,508,508,507,507,508,508,509,509,509,510,510,511,512,512,512,512,511,510,510,509,509,509,509,509,510,510,510,509,509,509,509,509,509,509,507,503,497,492,492,500,521,549,577,591,585,560,526,495,478,475,481,491,498,502,503,504,505,505,506,506,506,506,506,506,506,506,506,506,507,507,507,508,508,507,508,508,509,510,510,511,511,512,512,512,513,514,515,516,517,517,518,518,519,520,520,520,520,520,520,520,519,518,518,517,516,515,515,514,514,513,512,512,511,510,510,509,509,508,508,507,507,507,507,508,508,508,507,507,507,508,508,508,508,508,508,508,508,508,508,508,508,508,508,508,508,507,507,507,507,507,506,505,505,505,505,506,506,507,507,507,507,507,507,508,508,508,508,507,506,506,506,506,506,506,506,506,506,506,506,506,507,507,508,508,508,506,502,495,489,485,490,507,535,565,586,587,569,538,508,487,481,485,493,499,503,504,505,506,506,507,506,506,507,507,507,507,507,507,508,508,508,508,508,508,508,508,509,509,510,511,511,512,512,512,513,515,516,517,518,519,519,520,521,521,522,522,522,522,522,522,522,522,521,520,519,518,517,516,516,515,514,513,513,512,511,511,510,509,509,508,508,507,507,507,508,507,507,507,507,508,508,508,508,508,508,508,508,508,509,509,509,509,509,509,509,510,510,510,509,509,509,508,508,508,508,508,508,509,509,510,510,510,511,511,512,512,512,511,510,509,509,509,509,509,510,510,510,509,509,509,509,510,510,511,511,511,509,506,500,493,490,494,511,538,569,590,592,571,536,502,479,473,478,489,499,504,507,508,509,510,510,511,511,511,511,512,512,512,512,512,512,512,512,512,512,513,513,513,513,514,514,515,515,516,517,517,517,518,519,519,520,521,522,522,523,523,524,524,524,523,523,522,522,522,522,521,521,520,519,518,517,516,514,513,512,512,511,510,509,509,509,508,508,508,508,508,508,508,508,509,509,509,509,509,509,509,510,510,510,509,509,509,509,509,509,509,509,509,509,508,508,508,507,507,506,506,506,507,507,508,508,509,509,510,510,511,511,511,511,510,509,509,509,509,509,508,508,508,509,509,509,509,509,509,509,509,508,505,499,493,488,489,503,528,558,583,589,574,542,508,483,473,477,486,495,501,504,505,505,505,505,504,504,504,504,504,504,504,505,505,505,505,506,506,506,507,507,508,508,508,508,508,508,508,509,510,510,511,512,512,513,514,515,515,516,517,517,517,518,517,517,516,515,514,513,513,512,511,511,510,510,509,508,508,507,506,505,505,504,504,503,503,503,503,503,503,503,503,503,503,503,503,504,504,504,504,505,505,505,505,505,505,505,505,505,505,505,505,505,504,504,504,504,504,504,504,505,506,506,506,506,506,507,507,508,507,507,506,505,504,504,504,504,504,504,504,504,504,504,504,504,505,505,505,505,503,499,493,486,483,489,506,534,563,583,582,561,527,494,473,467,473,483,492,497,499,500,500,501,501,501,501,501,501,501,501,501,501,501,501,502,502,502,502,502,503,503,503,503,503,504,505,505,506,506,507,507,507,507,508,508,509,509,509,509,509,509,509,509,508,508,507,506,506,505,505,505,505,505,504,503,502,500,499,498,498,497,497,496,496,496,496,496,496,496,496,496,497,498,498,498,499,499,499,499,499,500,500,501,501,501,501,501,501,501,501,501,501,500,500,500,500,500,501,502,502,502,502,502,503,503,503,504,503,503,502,502,501,501,502,502,502,503,503,503,503,503,503,504,504,504,504,503,501,496,490,486,487,500,524,555,579,585,568,534,497,470,459,463,474,485,492,495,497,498,498,499,500,501,502,502,502,502,502,502,502,503,503,503,504,504,504,504,503,503,504,504,505,506,506,507,508,508,510,511,512,512,512,513,513,514,515,516,517,517,517,516,516,515,515,514,514,513,513,512,512,511,510,509,508,506,505,504,504,503,503,503,502,502,502,502,502,502,503,503,503,504,504,505,505,505,505,505,506,506,506,506,505,505,504,504,504,504,504,504,504,505,505,506,507,507,507,507,507,508,508,508,508,507,507,507,507,507,507,507,507,508,509,509,510,510,510,510,510,511,511,509,506,499,493,491,498,518,547,575,591,586,562,529,501,485,483,490,498,504,507,507,506,505,505,505,505,505,505,504,504,504,504,504,504,504,503,504,504,504,505,505,505,505,506,506,506,507,507,508,509,509,510,510,511,511,512,513,513,514,514,514,514,513,513,513,512,512,511,510,509,509,509,508,508,508,507,506,505,505,504,503,503,503,502,502,502,501,502,502,502,503,504,504,504,504,504,504,504,504,504,504,505,505,505,506,506,505,505,505,505,504,504,503,503,503,503,504,504,504,504,505,505,506,507,507,507,507,507,507,506,506,506,506,506,506,506,506,507,507,506,506,506,507,508,508,507,503,495,488,485,492,511,539,568,585,584,565,536,509,493,489,493,499,504,505,506,506,506,506,506,507,507,508,509,509,509,509,510,510,510,510,510,510,511,511,511,511,511,512,512,513,513,514,514,515,515,516,517,517,518,519,519,519,519,519,519,519,518,518,518,518,518,518,518,518,518,517,517,516,516,515,515,515,514,514,513,513,513,513,513,513,513,513,513,513,513,513,513,513,513,514,514,515,516,516,515,515,514,515,515,516,516,516,515,515,515,514,514,514,513,513,513,514,515,515,515,516,516,517,517,517,517,517,516,516,515,516,516,517,517,517,517,517,517,517,517,518,518,518,519,518,516,512,506,499,496,501,518,546,576,597,599,580,548,516,494,487,492,502,510,514,516,517,517,519,520,520,520,520,520,520,520,520,521,522,522,523,523,523,523,523,523,523,524,524,525,525,525,525,525,526,528,529,529,530,530,530,531,532,533,535,535,535,535,534,533,533,532,532,531,531,530,530,529,529,529,528,527,526,525,524,523,522,522,521,521,520,520,520,520,520,521,521,521,521,521,522,522,522,523,523,524,524,524,524,524,523,523,524,524,524,523,522,521,521,521,522,522,523,523,523,523,523,522,522,522,522,521,521,520,520,519,518,518,518,519,519,519,519,519,519,519,519,520,520,519,516,511,505,501,505,519,545,573,594,596,577,546,514,493,485,490,499,507,512,516,517,519,520,520,520,520,520,520,520,520,520,520,521,521,521,521,521,521,521,521,522,522,523,523,523,524,525,525,526,526,527,527,527,528,529,529,530,531,531,532,532,531,531,530,529,529,528,527,526,525,524,524,523,522,521,520,519,518,517,516,515,514,514,514,513,513,513,512,513,513,513,513,514,514,514,515,515,515,515,516,516,516,516,515,515,515,516,516,516,517,517,516,515,514,514,513,513,514,514,515,515,515,516,516,515,515,515,514,514,513,513,513,513,512,513,513,514,514,514,514,514,514,515,515,515,514,512,506,500,496,497,508,529,556,579,587,577,552,523,500,489,489,495,502,507,509,511,511,511,512,512,512,512,512,512,512,512,512,512,513,513,514,514,514,514,514,515,515,516,516,516,516,517,518,519,519,520,521,521,522,523,523,524,524,525,525,525,525,525,524,524,523,523,523,522,522,521,520,518,516,515,513,512,512,511,510,509,508,506,505,504,503,503,504,504,505,505,505,504,504,505,505,505,506,506,506,506,506,506,505,505,505,505,506,506,505,505,504,504,504,504,504,505,506,507,508,508,508,508,509,510,511,511,511,510,510,509,508,507,507,507,508,508,508,508,507,507,507,508,509,509,506,500,493,489,492,507,531,558,578,581,566,539,511,491,483,485,492,498,502,504,506,506,506,505,504,504,504,505,507,509,510,510,509,507,506,506,506,507,508,508,508,509,509,509,510,510,510,511,512,513,514,514,514,515,516,517,517,518,518,518,518,518,519,519,519,518,518,517,516,515,514,513,512,512,512,512,512,511,510,509,508,507,507,507,507,507,507,507,507,507,507,507,508,509,510,510,510,510,509,509,509,509,510,510,510,510,510,510,510,510,511,511,511,510,510,509,509,509,509,510,510,510,510,509,509,509,509,509,509,509,510,510,510,510,509,509,508,508,508,508,509,510,510,510,510,510,511,511,511,512,512,511,511,511,511,510,510,510,510,510,510,511,511,512,512,512,512,512,511,511,508,504,497,491,489,496,514,542,571,591,592,575,547,519,500,493,495,501,506,508,509,509,509,509,509,509,509,509,509,510,510,510,510,510,510,510,510,511,511,511,511,511,511,512,512,512,512,513,514,514,515,515,516,516,517,518,519,519,520,521,521,522,522,522,522,521,520,519,518,517,516,515,514,512,510,509,508,507,507,506,506,505,504,504,503,502,501,501,500,500,501,501,501,501,501,501,501,501,501,501,501,502,502,503,503,503,503,503,503,503,504,504,504,504,504,504,504,504,504,504,504,503,503,503,503,503,503,503,502,502,501,501,502,503,504,505,505,506,506,506,506,506,506,506,506,506,506,506,506,506,506,506,506,506,506,506,506,506,507,507,507,506,505,502,497,492,491,496,512,538,564,581,581,562,532,501,479,471,474,482,491,497,501,503,505,506,506,507,507,507,506,507,507,507,507,507,507,508,508,508,508,508,508,508,509,509,510,510,510,510,511,511,512,512,513,514,514,515,516,516,516,516,516,517,517,518,518,517,516,515,514,513,512,512,511,511,510,509,508,507,506,505,505,505,505,505,505,505,505,504,504,504,504,504,505,505,505,505,505,505,505,505,506,506,507,507,507,507,507,507,507,506,506,506,506,506,506,506,507,507,507,506,506,506,506,506,506,506,507,507,508,508,509,509,508,508,508,508,508,508,509,510,510,510,511,510,510,509,509,509,509,510,511,512,512,512,512,512,512,513,513,513,513,513,512,511,511,511,511,511,512,512,512,512,512,512,512,513,513,513,513,510,506,500,495,494,502,522,550,577,593,591,571,541,513,496,491,495,501,505,507,508,508,508,509,509,510,510,510,510,510,510,510,509,509,509,509,509,510,510,511,511,511,512,512,512,512,513,513,514,514,515,516,516,517,518,519,520,521,522,523,524,525,525,524,523,523,522,522,522,521,521,520,519,518,517,516,515,514,513,512,512,512,511,510,508,507,506,506,506,506,506,506,505,505,505,506,506,507,508,508,509,509,509,509,509,509,509,509,508,508,508,507,506,505,505,506,507,508,508,508,508,508,507,507,507,507,507,507,507,507,506,506,505,505,506,507,508,509,509,509,509,509,509,510,511,512,511,510,509,508,507,508,509,510,510,510,509,508,508,507,508,509,510,511,510,507,502,496,493,496,509,531,558,579,586,572,545,514,490,479,480,487,495,501,505,508,509,509,509,509,510,510,510,510,509,509,509,510,511,512,512,512,511,510,510,510,510,511,511,512,512,512,513,513,514,515,515,516,516,517,518,519,519,520,520,521,522,522,522,522,521,520,519,519,518,517,516,515,514,513,511,510,509,508,508,508,508,506,505,503,502,502,503,504,504,505,505,504,504,504,504,505,506,507,507,506,506,505,505,505,505,506,506,506,505,505,505,505,505,505,505,505,506,506,506,505,504,503,503,504,504,505,505,504,503,503,503,503,503,503,502,502,502,502,504,506,507,507,507,507,508,508,508,507,506,504,504,504,504,505,505,505,505,505,505,504,504,504,504,504,505,505,504,501,496,490,486,488,501,524,553,577,587,577,552,522,498,485,484,489,495,498,500,501,501,502,502,502,502,502,502,502,502,502,503,503,504,504,504,504,504,504,504,505,505,506,506,506,507,507,507,508,508,509,510,510,511,512,513,514,515,516,517,517,517,518,518,518,518,518,516,515,514,513,513,513,513,512,510,509,507,507,507,507,507,507,507,507,506,506,506,505,505,505,505,506,507,507,507,507,506,505,505,505,505,506,506,507,507,507,507,508,508,508,508,508,507,506,506,506,506,507,508,508,507,507,507,506,507,507,507,507,507,506,506,505,505,505,506,507,508,509,509,509,510,511,512,512,511,510,509,508,508,508,508,509,509,508,508,507,507,507,508,509,509,510,510,508,506,501,494,489,489,497,517,547,575,592,589,567,534,505,486,481,485,492,498,501,503,504,504,505,505,506,507,507,507,507,506,506,507,507,508,508,508,507,507,507,508,509,509,510,510,510,510,510,510,512,513,514,515,516,516,517,517,518,518,519,520,521,521,521,521,520,519,518,517,516,516,516,515,514,512,510,509,508,508,508,508,507,506,505,505,505,506,505,504,503,502,502,503,504,505,504,503,503,504,505,505,506,506,506,506,506,505,503,502,502,504,505,507,507,506,504,503,503,504,504,504,505,505,505,505,505,504,503,503,503,503,502,502,503,505,506,507,507,506,506,506,507,508,508,507,507,505,504,504,505,506,506,506,505,505,506,507,507,507,507,505,502,498,492,487,485,491,509,536,565,582,581,560,528,498,480,475,481,490,497,501,503,504,505,506,505,505,505,506,507,507,507,507,507,507,508,507,507,507,507,508,509,509,510,510,509,509,510,511,512,513,514,514,514,514,515,516,518,519,519,520,520,520,520,521,521,521,520,518,516,515,514,514,513,512,511,510,510,509,509,507,506,504,503,503,503,504,504,505,504,503,501,501,501,502,503,504,505,504,503,503,504,505,505,506,506,506,506,506,506,506,506,506,506,505,505,504,504,504,505,506,507,506,506,505,505,505,505,505,504,504,504,503,503,503,504,505,506,506,507,507,507,507,506,506,505,504,504,505,505,505,505,504,503,503,504,505,505,505,504,504,505,505,504,501,496,490,486,488,501,524,553,576,584,574,548,518,494,482,481,487,493,497,500,502,503,505,505,504,503,502,502,503,505,505,505,505,505,505,505,505,505,505,505,505,505,505,505,506,507,507,508,509,509,510,510,511,512,512,513,514,514,515,516,516,516,516,516,516,516,515,513,512,512,511,511,511,510,509,508,508,507,507,506,505,504,503,502,501,501,501,502,502,502,502,503,503,504,504,504,503,502,502,503,503,504,504,505,505,505,505,505,505,505,506,506,506,505,505,505,504,504,505,505,505,505,505,504,504,503,503,503,503,503,503,503,503,504,505,507,507,508,507,507,507,507,508,509,509,509,508,507,507,506,506,506,506,505,505,505,505,505,505,506,506,507,506,504,499,493,488,488,498,519,549,575,588,578,551,516,487,471,470,477,487,494,499,502,504,506,506,506,505,505,505,506,508,508,509,508,508,508,508,509,510,510,510,510,510,510,510,510,510,511,512,513,514,515,515,516,517,519,520,521,521,521,522,522,522,523,522,522,521,521,520,520,519,518,518,517,515,514,512,511,509,509,508,508,508,507,506,505,504,504,504,504,505,505,505,505,506,506,506,507,507,508,508,508,509,508,508,508,509,509,509,508,508,508,508,508,508,508,508,507,507,507,508,508,507,507,506,506,506,506,506,506,506,506,506,507,507,508,509,509,510,509,509,508,508,508,509,509,508,508,507,507,507,508,509,509,510,510,510,509,509,509,509,507,503,497,492,491,500,521,550,577,590,582,556,523,494,479,477,484,493,501,505,506,507,507,506,506,507,508,509,509,509,508,508,508,509,509,510,510,510,509,509,510,510,511,512,512,512,512,512,513,514,515,516,516,517,518,519,519,519,519,520,520,520,520,520,520,520,520,519,518,517,516,515,514,513,512,511,510,509,508,508,508,507,507,506,506,506,506,505,505,505,505,505,505,505,505,506,506,506,506,507,507,507,507,507,506,506,507,507,507,507,507,507,507,507,506,507,507,507,506,506,505,504,504,504,505,505,505,505,504,504,504,504,504,503,503,503,503,504,504,505,505,506,506,506,506,507,507,507,507,506,505,505,504,504,505,506,506,506,505,504,503,503,504,504,505,505,505,505,503,500,494,488,485,491,509,536,565,584,584,565,534,504,483,477,480,488,495,499,500,501,502,502,503,503,503,502,502,502,503,503,503,503,503,503,504,505,505,505,504,504,504,505,506,507,507,507,507,507,508,509,510,510,511,511,512,513,515,515,516,515,515,515,515,515,515,514,514,513,512,511,510,510,509,508,508,508,507,506,505,504,503,502,502,503,503,503,502,502,502,502,503,504,504,504,503,503,503,503,504,505,505,505,505,505,506,506,506,507,507,507,507,506,506,505,505,505,506,506,506,506,507,507,507,506,506,506,506,506,507,507,507,506,506,506,506,506,506,506,506,507,508,508,508,509,509,509,510,511,511,510,509,508,508,508,508,509,509,508,508,508,508,509,510,510,509,509,509,508,507,504,499,493,491,497,515,543,572,590,587,565,531,498,478,472,478,488,496,501,504,506,507,508,509,509,508,508,509,509,510,511,511,511,511,511,511,511,511,511,511,511,512,512,513,513,513,514,514,515,516,517,517,518,519,520,521,522,523,524,524,525,525,526,526,526,524,522,521,520,519,519,518,517,516,515,514,513,512,511,510,510,509,508,507,506,505,505,504,504,504,504,504,505,505,506,506,507,507,507,507,507,508,508,508,508,508,508,508,508,508,508,508,508,508,508,508,508,508,508,508,508,508,508,508,508,507,507,507,507,507,507,507,507,507,507,507,507,507,507,507,508,508,509,509,510,510,510,511,512,512,512,511,510,509,509,509,509,509,509,509,509,509,509,509,509,509,509,509,509,509,508,504,498,492,489,494,512,539,567,586,586,567,537,508,488,482,485,493,500,504,505,506,506,506,507,507,508,508,508,508,507,507,506,506,506,506,507,507,507,507,507,507,507,507,507,507,508,508,509,510,510,510,510,510,510,511,511,512,513,513,513,514,514,513,513,512,512,512,512,511,510,509,509,508,507,506,505,504,503,502,502,501,501,500,499,498,498,497,497,498,498,498,498,499,499,500,500,501,501,501,501,502,502,502,502,503,503,503,502,502,502,502,502,503,503,502,502,503,503,503,503,503,503,503,503,503,503,503,503,503,503,503,503,504,504,504,504,504,504,504,504,504,504,504,504,504,504,505,506,506,507,507,508,508,509,509,508,508,507,506,506,505,505,506,506,506,506,506,506,506,506,507,507,506,506,506,505,502,497,492,489,493,507,530,556,575,580,566,539,511,489,480,481,488,495,499,501,503,504,504,505,505,505,505,506,506,506,506,506,506,507,507,507,507,507,507,508,508,508,509,509,510,510,510,511,511,512,512,513,514,515,515,516,517,517,518,518,519,519,519,519,519,518,518,518,517,516,515,514,513,512,512,511,510,509,508,507,507,506,506,505,505,504,504,504,503,503,503,503,503,503,503,504,504,504,504,505,505,505,505,506,506,506,506,506,506,506,506,506,506,506,506,506,506,506,506,506,506,506,506,506,506,506,506,505,505,505,506,506,506,506,506,506,505,505,505,505,505,506,505,505,504,504,504,504,505,506,507,507,507,507,508,509,509,509,508,507,506,506,506,507,507,507,507,507,507,507,507,506,506,506,506,507,507,507,505,500,494,490,491,502,523,550,573,582,572,545,513,488,475,476,483,492,498,501,503,505,506,506,507,507,507,506,507,507,508,508,508,508,508,508,508,509,509,509,509,509,509,510,510,510,511,511,512,513,514,515,516,517,518,519,520,520,521,522,523,523,524,524,524,524,523,523,522,521,520,518,517,516,515,514,513,512,511,510,509,508,507,507,506,506,505,505,505,504,504,504,504,504,504,504,505,505,506,507,507,507,508,508,508,508,508,508,509,509,508,508,508,508,508,508,508,507,507,507,507,507,507,507,507,507,506,506,506,506,506,507,507,506,506,506,506,506,505,505,505,505,505,506,507,507,508,508,508,508,509,509,509,508,508,507,507,507,507,507,507,507,507,507,507,507,507,508,508,508,508,508,508,507,503,498,493,491,497,513,538,563,579,577,558,528,501,484,480,484,492,499,502,504,505,506,507,507,507,507,508,508,508,508,508,508,508,508,509,509,509,509,509,510,510,510,511,511,511,512,512,513,513,514,515,516,516,517,518,519,520,520,521,522,523,524,524,524,524,523,523,522,520,519,518,517,516,515,513,512,511,510,509,508,508,507,507,506,506,505,505,505,505,504,504,504,504,504,504,505,505,506,506,506,507,507,508,508,508,508,508,508,508,508,508,508,508,508,508,508,508,508,508,508,508,508,508,508,508,508,507,507,507,507,507,507,508,508,508,508,508,507,507,507,507,508,508,508,508,508,507,507,506,506,506,506,507,507,508,508,509,509,509,510,510,511,511,510,510,509,508,508,508,508,508,508,508,508,508,508,508,508,508,508,509,509,509,507,504,499,494,492,496,510,534,560,579,581,566,538,510,490,484,488,495,501,503,504,505,506,506,507,507,508,508,508,507,507,508,508,508,508,508,508,509,509,509,509,509,509,509,509,510,511,511,512,512,513,513,514,515,515,516,517,518,519,520,521,521,522,522,522,522,522,522,521,520,519,518,517,515,514,513,511,510,509,508,508,507,507,506,506,506,506,505,505,505,505,506,506,506,506,506,506,506,506,506,506,507,507,507,507,507,508,508,508,509,509,509,509,509,509,509,509,509,509,509,509,509,509,509,509,509,509,509,509,509,509,508,508,508,508,508,508,508,508,508,508,508,508,508,509,509,509,508,508,508,508,509,509,508,508,508,508,508,508,508,508,507,507,507,508,508,509,510,510,510,511,511,512,512,512,511,510,510,509,509,509,509,509,509,509,509,508,508,508,508,508,508,508,508,508,506,503,497,493,491,496,512,536,561,578,579,563,537,512,496,491,494,500,503,505,505,505,505,506,506,506,506,506,507,507,508,508,508,507,507,507,507,508,508,508,509,509,509,509,509,510,510,511,511,512,512,513,514,514,515,516,517,517,518,519,520,521,521,521,521,521,521,521,520,520,519,518,517,515,514,512,511,510,509,508,507,506,506,505,505,505,505,505,504,504,504,504,504,504,504,504,504,504,504,504,504,504,504,505,505,505,505,505,505,505,505,506,506,506,506,506,506,506,506,505,505,506,506,506,506,506,506,506,506,506,506,506,506,506,506,506,506,505,505,505,505,505,505,505,505,505,505,504,504,503,503,502,502,502,502,503,503,503,503,503,503,503,503,503,503,503,502,502,501,500,500,499,499,499,499,499,499,498,498,498,498,498,498,498,499,499,499,497,495,490,485,482,484,496,517,543,565,571,560,535,507,486,476,478,484,490,493,494,495,495,496,496,497,497,497,498,498,498,498,498,499,499,499,499,499,500,500,500,500,500,501,501,501,502,502,503,504,504,505,505,506,507,509,510,511,512,512,512,512,513,513,513,513,513,513,513,512,512,511,510,508,507,506,504,503,502,501,501,500,500,499,499,499,499,499,499,498,498,497,497,497,497,497,497,497,497,497,496,496,497,498,498,498,499,499,499,499,499,499,500,500,500,500,500,500,500,500,500,500,500,500,500,500,500,500,500,500,500,501,500,500,500,500,500,501,501,501,501,501,500,500,501,501,501,501,501,501,501,501,501,501,501,500,500,499,500,501,502,503,503,503,503,504,504,505,505,505,504,503,502,501,501,501,502,502,502,502,502,502,502,502,502,502,502,502,502,502,501,498,494,488,485,488,500,523,550,571,577,564,538,509,487,477,478,485,492,496,498,499,500,501,502,502,503,503,503,502,502,503,503,503,503,503,503,504,504,505,505,505,505,505,506,506,507,507,508,508,509,510,510,511,511,512,513,514,515,516,516,517,518,518,518,518,518,518,517,516,516,515,514,513,512,511,510,509,508,507,506,505,505,504,504,504,503,503,503,503,502,502,502,502,502,502,502,502,503,503,503,503,503,504,504,504,504,505,505,505,505,506,506,506,506,506,506,506,506,506,506,505,505,505,505,505,505,505,505,505,505,505,505,505,506,506,506,506,505,505,505,505,505,505,505,505,506,506,506,506,506,506,506,506,506,506,506,506,506,506,506,506,506,506,505,505,505,504,504,505,506,506,507,507,508,508,509,509,510,509,509,508,508,507,507,507,507,507,507,507,507,508,508,507,507,507,507,508,508,508,507,506,504,499,494,492,495,508,529,555,576,582,571,546,519,498,488,488,494,499,503,504,505,506,506,506,506,506,507,507,507,507,507,507,507,508,508,508,508,508,508,509,509,509,510,510,511,511,511,511,511,512,512,513,514,514,515,516,516,517,518,519,519,520,520,520,520,520,520,519,519,518,517,516,515,514,513,512,511,510,509,509,508,507,507,507,507,506,506,505,505,505,505,505,505,505,505,504,504,505,505,505,505,505,505,505,506,506,506,506,506,507,507,507,507,507,507,507,507,507,507,507,507,507,507,507,507,507,507,506,506,506,506,506,506,506,506,507,507,507,506,506,506,506,506,506,507,507,507,507,507,507,507,507,507,507,507,507,507,507,507,507,507,507,507,507,507,506,506,506,506,506,506,507,507,507,508,508,509,509,510,510,510,510,510,509,509,508,508,507,507,507,507,507,507,507,508,508,508,508,508,508,508,508,508,506,503,498,494,493,500,515,539,563,578,577,560,533,507,490,485,488,495,500,503,504,505,506,506,506,507,507,507,507,507,507,507,507,508,508,508,508,508,508,509,509,509,509,510,510,510,511,511,511,512,512,512,513,513,514,515,515,516,517,517,518,519,519,520,520,520,520,519,519,519,518,518,517,516,515,514,513,512,511,511,510,509,509,508,508,507,507,507,507,507,507,507,506,507,507,507,507,507,507,507,507,507,507,508,508,508,509,509,509,509,509,508,508,509,509,509,509,509,509,509,509,509,509,509,509,509,508,508,508,508,508,508,509,509,508,508,508,508,508,508,508,508,508,508,508,508,508,508,508,508,508,508,508,508,507,507,507,508,508,509,509,509,508,508,507,507,507,507,507,508,509,510,510,511,511,511,511,511,511,510,510,510,509,508,508,508,508,509,509,509,509,509,509,509,508,508,508,509,509,510,508,505,499,495,495,504,522,547,569,580,572,548,517,490,475,473,480,489,496,501,505,507,509,509,510,510,510,510,511,511,511,511,511,511,512,512,512,513,513,514,514,515,515,516,518,519,519,518,517,516,516,517,518,519,520,520,521,521,521,522,523,523,524,524,524,524,523,523,522,521,521,520,519,518,517,516,515,514,513,512,511,511,510,509,508,507,507,506,506,506,506,505,505,505,505,505,506,507,509,510,511,510,509,507,506,505,505,505,505,505,504,504,505,506,507,508,508,508,508,508,508,507,507,508,508,508,508,508,508,508,508,507,506,506,505,505,505,506,506,507,507,507,507,507,507,508,508,509,510,510,511,511,511,512,512,512,512,512,511,510,510,510,510,510,510,511,511,512,512,512,512,511,510,510,510,511,512,511,509,504,499,496,498,508,527,551,570,577,567,544,515,492,479,478,484,492,498,503,506,507,508,508,508,507,507,508,508,509,510,510,510,510,509,510,510,510,509,508,507,506,506,506,507,508,509,509,510,510,511,511,511,512,512,512,513,514,514,515,515,516,516,516,515,515,515,515,515,516,515,514,513,512,511,510,510,509,509,508,508,507,506,505,505,505,505,505,505,504,503,503,504,504,505,505,505,505,504,503,503,504,505,505,505,505,504,504,505,505,506,505,505,505,504,504,505,505,504,504,504,504,504,505,505,505,505,505,504,505,505,505,505,505,505,505,505,505,505,505,505,504,504,504,504,505,506,507,507,507,508,508,509,510,509,508,507,506,506,506,506,506,505,505,505,505,505,505,505,506,506,506,506,506,505,505,504,502,497,492,489,492,506,529,556,575,579,564,536,505,483,473,474,482,490,496,499,501,502,502,502,502,502,503,503,503,504,504,504,505,504,504,504,504,504,504,504,504,505,505,506,507,507,507,508,508,509,510,510,511,512,512,513,514,515,515,516,517,517,517,518,518,518,518,517,517,517,516,515,514,513,513,512,511,510,509,508,507,506,506,506,506,506,506,505,505,505,505,505,505,505,506,506,506,507,508,509,509,509,508,509,509,510,511,510,509,509,509,509,510,510,510,510,510,510,511,511,511,511,510,510,509,510,510,510,511,510,510,510,510,510,510,511,511,512,513,513,514,515,515,515,515,514,514,514,514,514,514,514,514,514,514,513,513,514,515,515,515,515,517,519,523,524,522,515,506,497,494,499,516,543,572,594,598,582,551,518,494,485,488,496,504,508,510,511,513,515,516,517,519,521,523,524,523,521,518,517,517,519,520,520,520,520,522,525,527,527,524,521,519,519,521,522,523,523,524,526,528,529,528,527,527,528,530,532,534,534,532,531,529,529,529,529,528,527,525,524,524,526,527,527,525,522,519,517,517,517,517,516,516,515,515,516,517,517,517,516,515,514,514,515,516,517,518,519,519,520,520,520,520,520,520,520,520,521,521,521,521,521,521,521,520,520,519,519,519,520,520,520,520,519,518,518,519,521,522,523,523,523,523,523,523,523,523,522,522,523,524,524,523,522,520,519,519,520,521,521,522,522,522,522,522,522,523,523,522,517,511,506,507,518,541,570,593,601,590,563,531,505,492,490,496,505,512,517,521,523,523,522,522,523,525,525,524,523,521,521,522,524,525,526,527,527,528,527,526,525,525,525,527,528,528,529,529,530,530,531,531,532,533,535,536,536,536,536,537,537,538,538,539,539,539,539,539,537,536,535,534,532,529,526,523,522,523,523,522,519,518,518,519,520,521,520,519,519,519,519,517,516,516,516,517,518,518,518,517,517,516,517,517,518,518,519,519,518,517,517,518,519,518,517,516,515,515,515,515,514,513,513,513,514,513,513,512,513,513,514,515,515,515,516,517,517,517,516,515,513,513,512,512,512,511,511,511,512,512,513,512,512,511,511,511,512,512,511,509,505,500,494,492,497,513,537,564,582,586,573,549,524,506,498,498,501,505,506,507,506,506,505,506,506,507,507,507,508,508,508,508,507,508,508,508,508,508,509,509,509,510,509,510,510,511,512,513,514,514,515,515,515,515,516,517,518,520,520,521,521,522,522,522,522,521,521,520,520,520,519,518,517,515,513,512,512,512,512,512,512,511,510,510,510,510,509,509,508,508,508,508,509,509,510,510,510,510,510,510,511,511,512,512,513,513,514,514,514,514,514,514,514,514,514,514,514,514,514,514,514,514,514,514,515,516,517,518,519,519,519,520,520,522,523,524,525,524,523,522,521,520,519,520,521,522,522,522,521,521,522,523,524,525,525,525,524,522,520,516,510,506,507,518,540,570,596,609,602,577,546,519,504,502,507,513,517,519,520,521,523,523,524,524,524,525,526,527,527,526,526,525,526,527,528,529,530,530,530,530,530,530,531,532,534,535,536,536,537,538,539,540,540,540,541,542,543,544,545,545,546,546,546,546,545,544,543,542,541,540,539,538,536,534,532,532,531,531,531,530,529,528,528,528,527,526,525,524,525,525,526,526,526,526,526,526,526,527,527,527,527,527,526,526,527,529,529,529,528,528,528,528,528,527,525,523,521,520,520,520,521,522,523,523,524,523,523,523,523,524,524,524,523,521,520,519,519,519,519,518,518,517,517,517,518,519,519,519,519,519,518,518,517,513,507,500,495,498,513,539,569,595,604,593,567,535,509,495,493,498,504,509,511,511,511,511,511,510,510,510,509,509,508,508,508,508,507,506,505,505,504,504,504,503,503,503,503,503,504,504,505,505,505,505,505,505,505,506,507,508,508,508,508,508,508,508,508,508,508,507,506,505,504,502,501,499,497,496,495,494,493,492,491,490,489,489,488,488,488,488,489,489,489,489,488,488,488,488,489,490,489,489,489,488,489,489,490,490,490,490,490,490,490,490,491,491,492,492,491,489,488,487,486,487,487,488,489,489,489,488,488,488,488,489,488,488,488,488,489,490,491,491,491,491,491,491,492,493,494,494,495,494,493,492,491,492,492,493,493,493,493,492,492,492,491,491,492,492,493,493,492,489,484,479,476,479,493,517,546,570,579,568,542,512,487,475,474,479,485,489,491,492,492,493,493,493,494,494,495,495,495,495,495,496,496,496,495,495,495,495,495,496,496,496,496,496,497,497,497,497,497,498,499,501,502,503,503,504,504,506,507,508,507,506,505,505,506,507,507,507,506,505,504,502,501,499,498,496,495,493,491,489,488,488,488,488,488,488,488,488,489,489,489,487,486,486,485,484,483,482,481,481,482,483,484,484,484,484,483,484,484,485,486,486,486,486,487,487,488,488,488,487,488,489,490,490,490,490,489,489,489,490,490,490,489,488,488,488,489,490,492,493,494,494,494,493,493,494,495,495,494,494,493,493,494,494,495,495,495,494,494,494,494,494,496,497,497,497,496,495,492,487,481,477,478,491,516,548,577,589,579,550,515,485,470,468,475,485,491,495,497,499,499,500,500,501,501,501,502,502,502,502,503,503,503,503,504,504,505,505,505,506,506,506,506,507,507,508,510,511,513,514,514,515,516,517,518,519,520,521,522,523,523,523,524,524,524,523,523,522,520,518,517,515,514,513,512,510,509,508,508,507,507,506,506,506,506,506,506,506,506,506,506,506,506,506,506,507,507,508,509,509,509,510,510,510,511,512,512,512,512,512,512,512,512,512,512,512,512,513,513,513,513,512,512,511,511,512,512,513,513,513,513,513,513,513,513,513,513,513,513,512,512,512,513,513,513,513,513,514,515,516,516,516,515,515,514,514,514,514,514,514,513,513,514,514,514,514,515,515,515,515,515,515,514,513,509,502,496,494,500,519,548,580,603,608,592,564,534,513,504,505,509,512,514,515,515,515,515,515,515,515,515,516,516,516,516,516,516,516,517,517,517,517,517,518,518,518,519,519,520,520,521,521,522,522,523,523,524,525,526,527,527,528,529,530,531,532,533,533,533,532,531,531,531,533,535,536,534,531,526,521,518,517,516,515,514,513,513,513,512,512,512,511,511,511,512,512,512,512,512,512,512,513,513,514,514,515,515,514,514,514,514,514,515,516,516,517,517,517,516,517,518,521,522,522,519,514,511,509,508,509,510,511,512,513,513,513,513,513,513,514,514,515,516,516,517,517,518,518,518,519,520,521,523,523,522,520,517,514,511,510,510,510,512,512,513,513,514,514,515,516,515,513,510,504,499,497,503,518,542,568,586,589,576,553,528,509,499,498,502,506,509,511,512,512,513,513,513,513,513,513,513,512,512,512,512,513,514,514,514,515,515,515,516,516,516,517,516,516,515,515,516,517,518,519,519,520,521,522,523,523,523,523,524,525,526,526,526,527,527,526,526,525,524,523,520,517,514,511,510,509,507,506,505,504,505,506,507,508,508,508,508,507,507,507,507,507,507,507,507,507,507,507,507,507,507,507,508,508,508,508,508,508,508,508,508,508,509,509,510,509,509,508,509,510,511,511,511,510,509,509,509,509,509,508,507,506,506,507,508,509,510,511,511,511,512,512,512,512,512,511,510,509,509,509,509,509,509,509,509,509,509,510,510,510,510,511,511,511,510,508,503,497,491,490,497,515,541,566,582,581,563,535,509,491,484,487,493,499,502,504,505,505,504,504,503,502,502,502,503,503,502,502,502,502,502,502,502,502,502,502,502,503,503,503,503,504,504,505,505,506,506,507,508,509,510,511,511,512,512,513,514,514,514,514,514,514,513,512,512,511,510,509,508,507,506,505,504,503,502,502,502,501,501,501,500,499,499,498,498,499,499,498,497,496,496,496,496,497,498,498,499,499,498,498,499,499,499,500,500,500,500,500,500,500,500,500,499,499,499,499,499,499,499,499,499,499,499,500,500,500,500,499,499,499,499,499,499,498,499,499,501,502,502,502,502,502,503,504,504,504,504,503,502,502,502,502,502,502,503,503,503,503,504,504,504,504,504,504,505,504,502,498,491,485,483,490,510,539,570,589,589,569,538,507,487,480,484,491,497,501,502,503,504,504,504,504,504,504,505,505,505,506,506,506,506,506,506,506,507,507,508,508,508,508,509,509,510,510,510,511,511,512,512,513,514,515,516,517,517,518,518,518,519,519,519,518,517,516,516,515,514,514,513,512,511,510,509,508,507,506,506,505,505,505,505,504,504,504,503,503,503,503,503,503,504,504,505,505,505,505,505,505,506,506,506,506,507,507,507,507,507,508,508,508,508,508,508,507,507,507,508,508,508,507,507,507,507,507,508,508,508,507,507,507,507,507,506,505,504,504,504,505,506,507,508,508,509,510,510,511,511,510,510,509,509,508,508,508,508,508,508,508,508,507,508,508,508,508,509,509,509,509,507,504,498,491,486,488,502,526,556,583,595,589,567,540,517,505,501,503,505,506,505,505,505,505,505,506,506,506,506,506,506,506,506,506,506,507,507,507,507,507,507,508,508,508,508,509,509,510,510,510,510,511,511,512,513,513,514,515,515,516,516,516,517,517,518,518,517,517,516,515,514,514,513,512,512,510,509,508,507,507,506,506,505,505,505,505,505,505,505,504,504,504,504,504,505,505,505,505,505,505,506,506,506,507,507,507,507,507,507,507,507,507,507,507,507,507,507,507,508,508,508,508,508,507,507,507,507,507,507,507,507,507,508,508,508,507,507,507,507,507,506,506,506,505,506,506,507,508,508,508,509,510,511,511,512,511,510,509,508,508,508,508,508,508,508,508,508,508,508,508,508,508,508,508,508,508,507,503,497,490,486,489,503,528,557,581,590,581,558,532,511,500,498,501,504,505,505,505,505,505,505,506,506,506,506,506,506,506,506,506,507,507,507,507,507,507,507,508,508,508,508,509,509,509,510,510,510,511,512,512,513,513,514,514,515,516,516,517,517,517,517,516,516,516,515,514,514,513,512,512,511,510,510,509,508,507,506,506,506,505,505,505,504,504,504,504,504,504,505,505,505,505,505,505,505,505,505,505,505,505,506,506,506,507,507,507,507,507,507,507,507,507,507,507,507,506,506,506,506,506,506,506,507,507,507,507,507,507,507,507,507,506,506,506,506,506,507,507,507,506,506,505,505,506,507,508,508,509,510,511,512,512,512,512,511,510,509,509,509,510,510,510,510,509,509,509,509,509,509,509,510,510,510,509,506,499,491,486,487,501,525,556,579,587,574,547,517,494,484,486,492,499,503,505,505,506,506,507,507,507,507,507,508,508,508,509,509,509,509,509,510,510,511,510,510,510,510,511,512,512,513,513,514,515,515,516,517,518,519,520,521,522,523,523,524,524,524,525,525,525,524,523,523,522,521,520,519,517,516,515,514,514,513,512,511,510,509,508,507,507,507,506,506,506,506,506,507,507,508,508,508,508,508,508,509,509,509,509,509,509,509,509,509,509,509,509,509,510,510,510,509,509,508,508,507,507,506,506,506,506,506,506,506,505,505,505,505,504,505,505,506,507,507,508,508,508,508,509,509,509,508,508,507,507,507,507,507,507,507,507,507,507,507,507,507,508,508,508,509,509,508,505,500,493,487,488,500,524,554,579,588,576,548,515,489,476,477,484,493,500,504,506,507,507,508,508,508,508,509,509,509,509,509,509,509,509,510,510,510,510,510,511,511,511,512,513,514,515,515,515,516,516,517,518,518,519,520,521,521,522,522,523,523,523,523,523,522,522,521,520,519,517,516,515,514,513,512,511,510,509,508,507,506,506,505,505,504,504,503,503,503,503,503,503,503,503,503,504,504,505,505,505,505,505,506,506,507,507,507,507,507,506,507,507,506,506,506,506,506,506,506,506,505,505,504,504,504,505,505,505,505,504,504,504,504,504,504,505,505,504,504,504,503,503,503,503,503,503,503,503,504,505,506,506,507,507,507,508,508,507,507,506,506,505,505,505,505,505,505,506,506,506,506,506,506,506,506,506,506,505,503,500,495,489,487,492,508,532,559,578,581,566,539,512,492,484,485,491,496,499,501,502,503,503,503,503,504,503,504,504,504,505,505,505,505,505,505,505,505,506,506,506,506,507,508,508,508,509,509,509,510,510,511,512,513,513,514,514,515,516,516,517,517,517,517,517,517,517,516,515,515,514,513,512,512,511,510,509,508,507,506,505,504,504,503,503,503,503,502,502,502,502,502,502,502,502,502,502,502,503,503,504,504,504,504,503,503,503,504,504,504,505,504,504,504,504,504,504,504,504,504,504,504,504,503,503,503,503,503,503,504,504,504,504,504,504,503,503,503,503,503,503,503,503,504,505,505,506,506,507,507,507,508,508,507,507,506,505,505,505,505,506,506,506,506,505,505,505,506,506,506,506,507,507,506,505,503,498,492,489,493,506,529,555,576,581,569,544,515,493,483,483,489,496,500,502,504,504,505,505,505,505,505,506,506,506,506,506,506,506,507,507,508,508,508,508,508,508,509,509,510,510,511,511,512,512,512,513,513,514,515,515,516,517,518,518,519,519,519,519,519,519,519,519,518,517,516,516,515,514,513,512,511,510,509,509,508,508,507,507,507,506,506,506,505,505,505,505,504,504,504,505,505,505,505,505,505,505,506,506,506,506,506,506,506,506,506,507,507,507,507,507,507,507,507,507,507,507,507,506,506,506,506,506,506,506,506,506,506,506,506,506,506,506,506,506,506,506,506,505,505,505,505,504,504,503,503,503,504,505,506,506,507,507,507,507,508,508,507,507,506,506,505,505,505,505,505,505,505,505,505,506,506,506,506,506,506,506,506,505,503,499,493,490,491,503,525,552,575,584,574,549,519,495,482,482,488,495,499,502,503,504,505,505,506,506,506,506,506,506,506,507,507,507,507,508,508,508,509,509,509,509,510,510,510,511,511,512,512,513,513,514,515,516,517,518,519,519,520,521,521,522,523,523,523,523,523,523,522,521,520,519,518,516,515,514,513,512,511,510,509,509,508,507,506,506,506,506,505,505,505,504,504,504,504,504,504,505,505,505,505,506,506,506,506,506,507,507,508,508,508,508,508,508,508,508,508,508,508,508,507,507,507,508,508,507,507,507,507,508,508,508,507,507,507,508,508,508,508,508,508,508,508,508,507,507,507,507,507,507,506,507,507,508,509,509,509,509,509,510,510,511,511,510,509,509,508,508,508,508,508,508,508,508,508,508,508,509,509,509,509,509,509,507,504,498,493,491,496,512,537,564,583,584,567,537,508,487,480,483,491,498,502,504,505,506,506,507,507,507,507,507,508,508,508,508,508,508,508,508,508,509,509,509,509,510,510,510,511,511,511,512,512,513,513,514,515,516,516,517,518,519,520,521,521,522,522,522,522,522,521,521,520,518,517,515,514,513,512,511,510,508,508,507,506,505,504,504,504,503,503,503,502,502,501,502,502,502,502,502,502,502,502,502,503,503,504,503,503,503,504,504,505,505,505,505,505,505,505,505,504,504,504,504,504,504,504,504,504,504,505,505,504,504,504,504,504,504,505,505,505,504,504,504,504,504,504,505,504,504,504,504,504,504,505,505,505,505,505,505,505,505,505,505,505,505,504,504,505,505,506,506,507,507,508,508,509,508,508,508,508,507,507,506,506,505,505,505,505,506,506,506,506,506,506,506,507,507,506,504,500,495,490,489,496,513,539,565,583,584,567,540,514,497,492,494,499,502,503,503,503,504,505,505,505,505,505,505,505,505,505,506,506,506,506,506,506,507,507,507,507,507,508,508,508,508,509,509,510,511,512,512,513,513,514,515,516,517,518,519,519,520,521,521,521,521,521,521,520,519,518,517,516,514,513,512,511,510,509,508,507,507,506,506,505,506,506,506,505,505,505,505,505,505,505,505,505,504,504,504,504,505,505,505,505,505,505,505,505,506,507,507,507,507,507,506,506,507,507,507,506,506,506,507,507,508,508,508,507,507,506,506,507,507,507,507,506,506,506,506,506,507,507,507,507,507,507,507,507,507,507,507,507,506,506,506,506,506,506,506,507,507,507,508,508,509,510,510,510,510,510,509,509,508,508,507,507,507,507,507,507,508,508,508,508,507,507,507,508,507,505,501,495,490,490,499,518,544,570,585,582,563,537,512,497,493,495,500,502,503,504,504,505,506,506,507,507,506,506,506,507,507,507,507,507,507,508,508,508,508,508,508,509,509,510,510,511,511,511,512,512,513,514,515,515,516,516,517,518,519,520,520,521,522,522,522,522,522,521,520,519,518,517,516,515,514,513,512,511,510,508,508,507,507,506,506,506,505,505,506,506,506,506,506,505,505,505,505,505,506,506,506,506,506,506,506,506,506,507,507,507,507,507,507,507,507,507,507,508,508,508,508,508,508,508,508,508,508,508,508,508,508,508,508,508,508,508,508,508,508,508,508,508,509,509,509,508,508,508,508,508,509,509,509,509,509,508,508,508,508,509,509,510,510,510,511,511,512,512,512,512,511,510,510,509,509,509,509,509,509,509,509,509,509,509,510,510,510,510,509,507,504,499,493,490,494,508,532,559,581,588,577,552,524,503,493,493,497,502,504,505,505,506,506,507,507,507,507,507,507,507,508,508,508,508,508,508,509,509,509,509,509,509,510,510,511,511,511,511,511,512,512,513,514,514,515,516,517,518,519,520,520,521,522,522,522,522,521,521,521,520,519,518,517,516,514,513,512,511,510,509,508,508,507,507,507,507,506,506,506,506,506,506,506,505,506,506,506,506,506,506,506,506,506,506,507,507,507,507,508,508,508,508,508,508,509,509,509,508,508,508,508,509,509,508,508,507,507,507,508,508,508,508,508,508,507,508,508,508,508,508,507,507,507,507,507,508,508,508,507,507,508,508,508,508,508,508,507,507,507,507,507,507,508,508,509,509,509,509,509,509,509,509,509,508,508,508,507,507,507,507,508,508,509,509,510,510,511,512,512,512,511,511,510,510,509,509,508,508,508,508,509,509,509,509,508,508,508,509,509,510,509,507,501,495,490,490,501,523,551,576,588,582,560,531,508,494,492,496,502,505,506,506,505,505,506,506,507,507,507,508,508,508,508,508,508,508,508,509,509,509,509,509,510,510,510,510,510,510,511,512,512,513,513,514,514,515,515,517,518,518,519,519,520,520,521,521,521,521,521,520,520,519,518,517,516,515,515,514,513,512,511,509,509,508,508,507,507,507,507,507,506,506,506,506,507,507,507,507,507,506,506,506,506,506,506,507,507,507,508,508,508,508,508,508,508,508,508,508,509,509,509,509,509,509,509,509,509,509,508,508,507,507,507,508,508,508,508,509,509,509,509,508,508,508,508,508,509,509,509,509,509,509,509,509,509,509,509,509,509,509,509,509,509,509,509,508,508,508,509,509,509,509,509,509,509,509,509,509,509,509,509,509,509,509,509,509,509,509,509,509,510,511,512,512,513,513,513,513,512,512,512,512,512,511,510,510,509,509,509,509,509,509,510,510,510,510,509,509,510,510,510,508,505,499,494,491,495,508,531,558,579,587,577,554,528,508,498,497,501,504,505,506,506,506,506,507,507,507,507,507,507,507,507,507,508,508,508,508,508,508,508,508,508,509,509,509,510,510,510,511,511,511,512,512,513,514,514,515,516,517,518,519,519,520,520,521,521,521,521,521,520,520,520,519,518,517,516,515,514,513,512,511,510,509,509,508,508,508,508,508,507,507,507,507,507,507,507,507,507,507,507,507,507,507,507,507,507,508,508,508,508,508,508,508,508,509,509,509,509,509,509,508,508,508,508,508,508,509,509,509,508,508,508,509,509,509,509,508,508,508,508,508,508,508,508,509,509,509,509,509,509,509,509,509,509,509,509,509,509,509,509,509,509,509,509,509,509,509,509,509,509,509,509,509,509,509,509,510,510,510,510,510,509,509,510,510,510,510,510,510,510,511,511,512,512,512,512,513,513,513,513,513,512,512,511,510,510,509,509,510,510,510,510,509,509,509,509,509,509,509,509,509,508,505,500,495,492,496,510,533,560,581,586,573,548,520,500,490,490,496,501,503,504,505,506,506,507,507,508,508,508,508,508,508,508,508,508,509,509,509,510,510,510,510,510,510,510,511,511,512,512,513,513,514,515,515,516,516,518,519,520,521,522,522,523,523,524,525,525,525,524,524,523,522,522,521,520,519,518,517,516,514,513,512,511,510,509,509,508,507,507,507,507,507,507,506,506,506,506,506,506,506,506,506,507,509,511,513,514,515,514,512,510,509,509,509,510,509,507,505,503,504,505,506,507,507,507,507,506,505,505,505,505,505,506,506,506,506,507,507,507,506,506,506,506,506,506,507,507,507,507,507,507,507,507,507,508,509,509,509,508,507,506,506,506,506,506,507,507,507,507,507,507,507,507,507,507,508,509,510,510,510,510,510,509,509,509,509,509,509,509,508,507,505,504,503,502,502,502,503,503,504,505,505,504,501,496,490,486,488,501,523,550,571,578,566,542,514,492,481,480,486,493,499,502,503,503,503,504,504,504,505,504,505,507,509,511,510,508,505,503,503,503,504,505,505,504,504,505,506,507,508,508,509,509,509,510,511,511,512,513,514,515,516,517,518,518,518,517,517,517,517,517,517,517,517,516,515,513,512,512,513,514,514,511,508,505,502,500,499,498,498,499,501,502,503,502,502,502,503,505,505,506,505,505,505,504,505,505,506,506,506,507,507,507,507,507,507,507,507,507,507,507,507,506,507,507,507,507,507,508,510,512,513,513,511,507,504,503,503,504,504,504,503,503,504,506,507,507,507,507,507,507,508,508,508,509,509,510,510,510,510,510,510,510,509,509,508,508,508,509,509,509,509,509,510,510,511,512,512,512,512,511,510,510,509,508,508,508,508,507,507,507,507,507,506,506,506,507,507,507,507,506,504,501,496,492,491,497,513,537,560,575,572,554,527,500,483,478,481,488,495,499,501,502,503,503,504,504,504,505,505,506,506,507,507,507,507,507,507,508,508,508,508,508,508,509,509,510,510,511,511,512,512,512,513,513,514,515,516,517,518,518,518,518,519,519,520,520,520,519,519,519,519,518,518,517,516,515,514,513,512,511,511,510,509,509,508,507,506,506,505,505,505,505,504,504,504,505,505,505,505,505,505,505,506,507,507,507,507,508,508,508,508,508,508,509,509,509,509,509,509,509,509,509,509,509,509,509,509,509,509,508,508,508,508,508,508,508,508,508,508,508,508,508,508,508,508,507,507,507,508,508,509,509,509,509,510,510,511,511,512,511,511,510,509,509,508,508,509,509,509,509,509,509,509,509,509,509,509,509,509,508,505,500,493,489,492,506,530,558,580,587,575,548,517,494,483,484,490,497,501,504,505,505,506,506,506,507,507,507,507,507,508,508,508,508,509,509,509,509,509,509,509,510,511,511,511,511,511,511,512,512,513,514,515,515,516,517,518,518,519,520,521,521,522,522,522,522,522,521,521,520,519,518,517,516,514,513,512,511,510,510,509,508,508,507,507,506,506,506,505,505,505,505,505,505,505,505,505,505,505,505,506,506,506,506,507,507,507,507,507,507,507,508,508,508,508,508,508,508,508,508,507,507,507,508,508,508,508,508,507,507,507,507,507,508,508,508,507,507,507,508,508,508,508,508,508,508,508,507,507,507,507,508,508,509,509,509,509,510,511,511,511,511,510,510,509,508,508,508,508,508,508,508,508,508,508,508,508,508,508,508,508,508,506,502,496,492,491,497,514,539,565,582,583,567,540,514,496,490,492,498,502,503,504,504,505,505,505,506,506,506,506,506,506,506,506,506,507,507,507,507,507,508,508,508,508,509,509,509,510,510,510,511,511,512,512,513,514,514,515,516,517,518,518,519,519,520,520,520,520,520,520,519,519,518,517,516,514,513,512,511,510,509,509,508,507,507,506,506,505,505,505,505,505,505,505,505,505,505,505,505,505,505,505,505,505,505,505,505,506,506,506,506,506,506,506,506,506,507,507,507,507,507,507,507,507,507,507,507,507,507,507,507,507,507,507,507,507,507,507,507,507,507,507,507,507,507,507,507,507,507,507,506,506,506,506,506,507,508,509,509,510,510,510,510,510,510,510,510,509,508,508,507,507,507,507,508,508,507,507,507,507,507,508,508,508,508,507,505,500,494,490,490,500,521,549,574,586,580,558,529,505,492,491,495,500,503,504,504,505,505,506,506,506,506,506,506,507,507,507,507,507,507,508,508,509,509,510,510,511,511,511,511,512,512,513,514,515,515,516,517,517,518,519,519,520,521,522,523,524,524,525,525,525,525,524,524,523,522,520,519,518,517,516,515,514,513,512,510,509,508,507,507,507,507,506,506,506,505,505,505,505,505,505,506,505,505,505,505,505,505,505,505,505,505,505,506,506,507,507,507,507,507,507,507,507,507,507,507,508,508,508,508,508,508,507,507,507,506,507,507,507,507,507,507,507,508,508,508,508,508,507,507,507,508,508,508,507,507,507,507,508,508,509,509,509,509,509,510,511,511,511,511,511,510,510,509,509,509,509,508,508,509,509,509,509,509,509,509,509,509,509,509,508,504,498,493,491,497,514,541,569,586,584,564,533,505,487,482,487,495,501,505,506,507,507,508,508,508,508,508,509,509,509,509,509,510,510,510,510,511,511,511,511,511,511,511,512,512,512,513,513,514,514,515,516,517,518,518,519,520,521,522,523,524,524,524,525,525,524,524,524,523,522,521,520,519,517,516,515,514,513,512,511,510,509,508,508,507,507,507,506,506,506,506,505,505,505,505,505,505,505,506,506,506,506,506,506,506,506,507,507,507,507,507,507,507,507,508,508,508,508,507,507,507,507,507,507,507,507,507,507,507,506,506,506,506,506,506,506,506,506,506,506,506,506,506,506,506,506,506,506,506,506,506,506,506,506,506,507,507,507,507,507,507,507,507,507,507,507,507,507,507,507,507,507,507,507,507,508,508,509,509,510,510,511,511,511,511,510,510,509,508,508,508,507,507,507,507,507,508,508,508,508,508,508,508,508,508,506,502,497,492,489,494,509,534,561,581,586,573,548,522,503,495,496,500,504,505,505,505,505,506,506,506,506,506,506,507,507,507,507,507,508,508,508,508,508,508,508,509,509,509,509,510,510,511,511,511,512,512,513,513,514,514,515,516,517,517,518,519,520,520,521,521,521,521,521,521,520,519,518,517,516,515,514,513,512,511,510,509,508,507,507,506,506,506,506,505,505,505,505,505,505,505,505,505,505,505,505,505,505,505,505,505,505,506,506,506,506,506,506,506,506,506,506,506,506,506,507,507,507,507,507,507,507,507,507,507,507,507,507,507,507,507,507,507,507,507,507,507,506,506,506,506,507,507,507,507,507,507,507,507,507,506,506,506,507,507,507,507,506,506,506,506,507,507,507,507,507,507,507,507,507,507,507,507,507,507,507,507,507,507,508,508,507,507,507,506,506,506,507,507,508,509,509,509,510,510,510,511,511,510,510,509,508,508,507,507,507,507,507,507,507,507,507,507,507,507,507,508,508,508,507,504,499,493,490,494,508,531,559,582,589,577,552,524,503,493,494,499,503,505,506,506,506,506,506,506,506,506,507,507,507,508,508,508,508,508,509,509,510,510,510,510,510,510,510,511,511,512,512,512,512,513,513,514,515,517,517,518,519,520,521,522,523,524,524,525,525,525,525,525,525,524,523,522,520,519,518,517,515,514,513,512,512,511,511,510,510,509,509,509,509,509,508,508,508,508,508,508,507,507,507,508,508,508,508,509,509,509,509,509,508,509,509,509,510,510,510,510,510,510,510,510,510,510,510,510,510,510,510,510,510,510,510,510,509,509,509,509,509,509,509,509,509,509,509,509,509,509,509,509,509,509,509,509,509,509,509,509,509,509,509,509,509,509,509,509,509,509,509,509,509,509,509,509,509,509,509,509,509,509,509,508,508,509,509,509,509,509,509,509,509,509,510,510,510,510,510,510,511,511,512,512,512,512,511,511,510,510,509,509,509,509,509,509,509,509,509,509,509,509,509,509,509,509,509,507,502,496,491,490,497,516,544,571,587,584,564,535,508,491,486,490,497,502,505,506,506,506,507,507,507,507,508,508,508,508,508,508,508,508,508,509,509,509,510,510,510,510,510,510,510,511,512,512,512,513,513,514,515,515,516,517,517,518,519,520,521,522,522,523,523,523,523,523,523,522,521,520,519,517,516,515,513,512,511,510,509,508,508,507,507,506,506,506,505,505,505,505,505,505,505,504,505,505,505,504,504,504,504,505,505,506,506,506,507,507,507,507,507,507,507,508,508,508,508,508,508,508,507,507,507,507,508,508,508,508,507,507,507,507,507,507,508,507,507,507,507,508,508,507,507,507,507,507,507,507,507,507,507,507,507,507,507,507,507,507,507,507,507,508,508,508,508,508,508,507,507,508,508,508,508,508,508,508,508,508,508,509,509,509,509,509,509,509,509,509,509,509,509,509,509,509,509,509,509,509,509,509,509,509,509,509,510,510,511,511,512,512,513,513,513,512,512,512,511,511,511,510,510,509,509,509,510,510,510,510,510,510,510,511,510,510,510,510,508,504,498,494,493,500,518,544,570,587,588,572,546,520,504,498,499,504,506,507,507,507,507,507,507,507,507,508,508,508,508,509,509,510,510,510,510,510,510,510,510,511,511,512,512,512,512,512,513,513,514,515,515,515,516,516,517,518,519,520,520,521,522,522,523,523,524,524,524,523,523,523,522,521,520,519,518,517,515,514,513,512,511,511,510,510,509,509,509,509,509,509,509,509,508,508,508,508,509,509,509,509,509,509,509,509,509,509,509,509,509,509,509,509,509,509,510,510,510,511,511,510,510,510,510,510,510,510,511,511,511,510,510,510,510,510,510,510,510,510,510,510,511,510,510,510,510,509,509,510,510,510,511,511,510,510,510,510,510,510,510,510,510,510,511,511,511,510,510,510,510,511,511,511,511,511,511,511,511,511,510,510,510,510,510,510,511,511,511,511,510,510,510,510,510,510,510,510,511,511,511,510,510,509,509,510,511,512,512,512,512,512,513,513,513,513,512,512,511,511,510,510,510,510,510,510,510,510,510,510,509,509,509,509,510,510,509,508,504,499,494,493,500,515,539,564,581,582,568,544,519,503,497,498,503,506,507,506,506,506,507,507,507,508,508,508,507,507,508,508,508,508,508,508,507,508,508,509,510,510,510,511,511,511,511,511,512,512,513,514,514,514,515,515,516,516,517,517,518,519,520,521,521,522,522,522,522,521,521,521,520,519,518,517,515,514,513,512,512,511,510,509,508,508,507,508,508,508,508,507,507,507,507,508,508,507,507,507,507,507,508,508,507,507,506,506,507,507,508,508,508,508,508,508,509,509,509,509,509,509,509,509,509,509,509,509,509,509,509,509,509,508,508,508,509,509,509,509,509,508,509,509,509,509,509,509,509,509,509,509,509,509,509,510,510,510,510,510,510,510,510,510,509,509,509,510,510,511,511,510,510,510,510,510,510,510,510,510,510,510,510,510,510,510,510,510,510,510,510,510,510,510,510,509,509,510,510,511,512,512,513,513,513,513,514,513,513,512,512,511,510,510,509,510,510,510,510,510,510,510,510,509,509,510,510,510,510,509,506,501,496,493,497,510,531,556,576,581,570,547,521,502,493,493,498,503,505,506,507,507,507,507,507,507,507,508,508,509,509,509,509,509,508,509,509,510,510,510,510,510,510,510,510,511,511,512,512,513,513,513,514,514,515,515,516,517,517,518,519,519,520,520,520,520,520,521,521,521,521,520,520,519,518,517,516,515,514,512,512,511,510,509,509,508,508,508,508,507,507,507,507,507,506,506,506,506,507,507,507,508,508,508,507,507,507,507,508,508,508,508,508,509,509,509,509,509,509,509,509,509,509,509,509,509,509,509,509,509,509,509,509,508,508,508,508,508,508,508,508,508,508,508,508,508,508,508,508,508,508,509,509,509,509,509,508,508,508,508,508,508,508,508,508,508,508,509,509,509,509,509,509,508,508,509,509,509,509,509,509,508,508,508,508,509,509,510,511,511,511,511,511,512,512,513,513,512,511,510,509,509,509,509,509,509,509,509,509,509,509,509,509,509,509,509,509,508,504,499,494,492,496,509,530,553,571,576,566,544,519,501,492,492,496,501,503,504,505,505,505,506,506,506,507,507,507,507,507,507,506,507,507,508,509,509,509,509,509,509,509,509,510,510,511,511,511,511,511,512,512,513,514,514,515,516,516,517,518,518,519,519,519,519,520,520,520,519,519,518,518,517,517,516,515,513,512,512,511,510,510,509,509,509,508,508,507,507,507,506,507,507,507,507,507,507,507,507,507,508,508,508,508,508,508,508,509,509,509,509,509,509,509,509,509,509,509,509,509,510,510,509,509,509,509,509,509,509,509,509,508,508,508,508,509,509,509,508,508,509,509,509,509,508,508,508,508,509,509,509,508,508,508,509,509,508,508,508,508,508,508,508,508,508,508,508,508,509,509,510,510,510,511,512,512,512,512,511,511,511,511,510,509,508,508,508,508,508,508,508,508,508,508,508,509,509,509,509,507,503,497,493,494,503,520,543,564,574,569,550,525,503,490,487,491,497,502,504,505,506,506,507,507,508,507,507,507,507,507,507,507,507,508,509,510,510,511,511,510,510,510,510,510,511,511,512,512,512,512,513,513,514,515,515,516,516,517,518,519,520,520,520,521,521,521,521,521,521,520,520,519,518,517,516,515,513,512,512,511,511,511,511,510,509,509,509,508,508,508,507,507,507,507,507,507,508,508,508,508,508,508,507,507,507,507,508,508,508,509,509,509,509,509,510,510,509,509,509,509,508,509,509,509,509,509,509,509,509,509,509,508,508,508,509,509,509,509,509,509,509,509,508,508,507,507,508,508,509,509,509,509,509,509,510,510,510,510,510,510,511,512,513,513,513,512,511,510,509,508,507,507,507,508,509,510,511,510,510,510,510,510,510,510,510,509,506,502,497,494,495,504,523,546,565,574,568,549,524,503,491,488,492,499,503,506,508,509,510,511,511,510,509,507,505,505,505,506,506,507,507,508,510,511,511,511,510,510,509,510,510,511,512,512,512,513,513,513,514,514,515,515,515,516,516,517,518,519,520,521,521,521,520,520,519,519,518,518,517,516,515,514,513,512,511,509,508,508,507,507,507,507,506,505,504,503,503,502,502,502,502,502,502,502,502,502,502,502,502,502,502,502,503,504,504,504,504,504,504,504,504,504,505,507,509,510,510,508,506,503,501,499,499,500,501,503,504,505,505,504,503,502,502,502,502,501,501,501,502,502,502,502,502,503,503,504,504,505,505,505,505,506,508,509,509,509,508,507,506,506,506,507,507,506,506,506,508,511,512,513,512,509,507,506,505,504,501,497,493,491,496,510,531,555,571,572,558,533,508,489,482,484,490,497,502,505,507,507,507,507,507,507,507,508,508,508,508,507,507,507,508,509,510,510,510,510,510,512,515,518,520,520,517,512,507,505,507,512,518,521,521,518,515,513,515,517,520,520,520,519,520,520,521,521,521,521,521,520,520,519,518,517,516,516,515,515,514,513,512,512,511,511,510,510,509,508,508,508,509,509,509,509,509,509,510,512,514,515,515,513,510,506,504,502,503,505,508,509,509,508,507,507,508,508,509,509,510,510,510,510,510,510,510,510,509,509,509,509,509,509,509,509,509,509,509,509,509,508,508,508,507,507,507,507,507,507,508,509,509,510,510,510,510,510,510,510,510,510,509,508,507,506,505,504,504,504,504,505,505,505,504,504,504,505,505,505,505,503,500,497,495,495,501,514,533,553,566,566,551,527,502,484,477,479,485,492,496,498,499,500,501,501,501,501,501,501,502,503,503,503,503,503,503,504,504,505,505,505,505,506,506,506,506,506,506,507,508,509,509,510,510,510,511,512,513,515,516,517,517,516,515,513,512,512,513,514,515,515,515,515,515,514,513,512,511,510,510,509,509,508,507,506,506,505,505,505,505,505,504,504,504,504,504,505,505,505,505,505,505,504,505,505,505,505,505,505,505,505,505,505,505,505,505,506,506,506,507,507,507,507,507,507,507,507,507,506,506,506,506,506,506,507,507,507,507,507,507,507,507,507,507,508,508,509,509,510,510,511,511,511,511,510,509,509,509,509,509,509,509,509,509,509,509,509,509,508,508,508,508,509,509,508,507,505,500,495,491,493,506,529,558,581,590,578,551,519,493,481,481,488,496,502,505,506,507,507,508,508,508,508,507,508,508,509,509,509,509,509,509,509,510,510,511,511,511,511,511,511,512,512,513,513,513,514,514,515,517,518,519,519,520,520,521,522,523,524,524,525,525,524,524,524,523,523,522,520,519,517,516,514,513,513,512,511,510,509,509,508,508,507,507,506,506,506,506,506,505,505,504,504,504,504,504,505,506,507,507,507,507,507,507,507,507,508,508,508,508,508,508,508,508,508,509,509,508,508,508,508,508,508,509,508,508,508,508,507,507,507,507,507,508,508,508,508,508,507,507,506,506,506,506,507,508,509,509,509,509,510,510,510,510,510,510,509,508,508,507,507,507,508,508,508,508,508,508,508,508,508,508,508,508,508,508,506,502,496,491,489,495,512,539,567,587,590,574,547,519,499,491,492,497,502,504,505,505,505,505,506,506,506,506,506,506,506,506,507,507,507,508,508,508,509,509,509,510,509,509,509,509,510,511,511,511,511,512,512,513,514,515,516,516,517,518,519,520,521,522,522,522,522,522,522,521,520,519,518,517,516,515,514,513,511,510,509,508,507,507,506,506,505,505,505,505,505,505,505,505,505,504,504,504,504,504,504,504,504,504,504,504,505,505,505,506,506,506,506,506,506,506,506,506,506,507,507,507,507,507,507,507,507,507,507,507,507,507,507,506,506,506,506,507,507,507,506,506,506,507,507,507,507,507,507,507,507,507,507,507,507,507,507,507,507,507,507,507,507,507,506,506,506,506,506,507,508,508,509,509,510,510,511,511,511,510,509,508,508,508,508,508,508,508,508,508,508,508,508,507,507,507,508,508,508,508,507,504,499,493,490,492,505,527,555,579,589,580,556,528,506,494,492,496,501,503,504,504,505,505,505,505,505,506,506,507,508,508,508,507,507,506,507,507,508,508,508,508,509,509,509,509,509,509,510,511,511,512,512,512,513,514,514,515,516,517,518,519,519,520,521,521,522,522,522,521,521,520,520,519,518,517,515,513,512,511,510,510,509,508,507,506,505,505,504,504,504,505,505,505,505,505,505,505,505,505,505,505,506,506,506,505,505,505,505,505,505,505,505,506,506,507,507,507,507,506,507,507,507,507,507,507,507,508,508,508,507,507,508,508,508,508,508,507,507,507,507,507,507,507,507,507,508,508,508,508,507,507,507,507,507,508,508,508,508,508,508,508,508,508,508,508,508,508,508,508,508,508,508,508,509,509,509,509,509,509,509,509,509,509,509,510,510,510,511,511,510,510,510,510,510,510,510,510,511,511,511,511,510,509,509,510,510,511,512,512,512,513,513,513,514,514,514,514,513,513,512,512,512,512,512,512,512,512,512,512,512,512,512,512,512,512,512,512,511,510,506,500,494,492,498,515,543,573,594,597,580,550,520,499,492,494,500,505,507,508,508,509,509,509,509,509,509,509,510,510,510,510,510,510,511,511,511,511,512,512,512,512,512,513,513,513,513,514,514,514,515,515,516,517,518,518,519,520,521,522,523,524,525,525,526,526,527,527,527,527,527,526,524,522,521,519,518,517,515,514,512,511,510,509,509,508,508,507,507,506,506,506,506,506,506,506,505,505,505,505,505,505,505,505,505,505,505,505,506,506,506,506,506,506,507,507,507,507,507,507,507,507,508,508,508,508,508,508,508,507,507,507,507,507,507,508,508,507,507,507,507,507,507,507,507,507,507,507,507,506,506,506,506,507,507,507,507,507,507,507,507,507,507,507,507,507,506,506,506,507,507,507,507,506,506,506,506,507,507,507,507,507,507,506,506,507,507,506,506,506,505,505,505,505,505,505,506,507,507,508,509,510,510,510,510,510,509,509,508,508,507,507,507,507,507,506,506,506,506,506,506,506,506,506,506,507,507,507,506,502,497,491,488,491,506,531,560,583,590,579,553,523,501,491,490,495,499,501,502,502,503,503,503,503,503,504,504,504,504,504,504,504,504,504,504,505,505,505,505,506,506,507,507,507,507,507,508,508,509,510,510,510,511,511,512,513,514,515,516,517,518,519,519,520,520,521,521,521,520,519,519,518,517,515,514,512,511,509,508,507,506,506,505,504,504,503,503,503,503,503,503,503,502,502,502,502,502,502,502,502,502,502,502,502,502,502,502,502,502,503,503,503,504,504,504,504,504,504,504,504,504,504,504,505,505,505,505,505,505,505,505,505,505,505,505,505,504,504,504,504,504,504,505,505,505,505,505,504,504,504,505,505,505,505,505,505,505,505,505,505,505,505,505,505,505,505,505,505,506,506,505,505,505,505,506,506,506,506,506,506,506,506,506,506,506,505,505,505,505,505,505,505,506,507,507,508,508,509,509,510,511,511,510,509,508,507,507,507,507,507,507,507,507,507,507,507,507,507,507,508,508,508,508,507,505,501,495,490,489,496,513,540,567,586,587,570,543,516,498,492,493,498,502,504,504,505,505,506,506,506,506,506,506,507,507,507,507,507,507,508,508,508,508,508,508,509,509,509,509,510,510,510,511,512,512,512,513,513,514,514,515,516,517,518,519,520,520,521,522,523,523,524,524,523,523,523,522,521,519,518,517,515,514,513,511,510,509,508,507,506,506,505,505,505,505,504,504,504,504,504,504,504,504,504,504,504,504,504,504,504,504,504,504,504,505,505,505,505,505,505,505,506,506,506,506,506,506,507,507,507,507,507,507,507,507,507,507,507,507,507,507,507,507,506,506,506,506,506,507,507,507,507,507,507,507,507,507,507,507,507,507,507,507,507,507,508,508,508,508,508,508,507,507,507,507,507,506,506,506,506,507,508,509,509,510,510,511,512,512,512,511,510,509,508,507,508,508,509,509,509,509,509,509,508,508,508,508,508,509,509,509,508,505,500,495,490,491,502,523,551,576,588,582,560,530,506,491,489,493,499,502,504,505,505,506,506,507,507,507,507,507,507,508,508,508,508,508,508,508,508,509,509,509,509,509,510,510,510,511,511,512,512,512,513,513,514,514,515,516,517,517,518,519,520,521,522,522,523,523,523,523,523,523,522,521,520,519,518,516,515,513,512,511,510,509,508,508,507,507,507,506,506,506,506,506,506,505,505,505,505,505,505,505,505,505,505,505,505,506,506,506,506,506,507,507,507,507,507,508,508,508,508,508,508,508,509,509,509,509,508,508,508,508,508,508,508,508,508,508,508,508,508,508,508,508,508,508,508,508,508,508,508,508,508,508,508,508,508,508,508,508,509,509,509,509,509,509,509,509,509,509,508,508,508,508,509,509,510,510,510,510,511,511,512,512,513,513,512,511,510,510,510,510,510,510,510,509,509,509,510,510,510,510,510,510,510,510,509,507,503,497,493,493,503,524,553,580,592,585,559,526,499,484,482,488,496,502,504,506,507,507,508,508,509,509,509,509,509,509,509,510,510,511,511,511,511,511,511,511,511,511,511,511,512,513,513,514,515,515,515,516,517,517,518,519,520,521,522,523,524,525,526,527,528,528,529,529,528,528,527,526,525,523,522,520,519,517,516,514,512,511,510,509,508,508,507,507,507,506,506,506,506,506,506,506,505,505,505,505,506,506,506,506,506,506,507,507,507,508,508,508,508,508,508,509,509,509,509,509,509,509,509,508,508,508,508,508,509,509,509,508,508,508,508,508,508,508,508,508,508,508,508,508,508,508,508,508,508,508,508,508,508,508,509,509,508,508,507,507,507,507,508,509,509,509,510,510,510,511,511,511,511,511,510,510,509,509,508,508,508,508,508,509,509,509,508,508,508,508,509,509,509,507,503,497,491,488,494,510,536,564,584,587,572,544,516,497,490,491,497,502,504,505,506,506,506,506,506,506,507,507,507,507,508,508,508,508,509,509,509,509,509,509,509,510,510,510,511,511,512,512,512,513,513,514,515,515,516,516,517,518,519,520,521,521,522,523,523,524,524,525,524,524,523,522,521,520,518,517,515,514,512,511,510,509,508,508,507,507,506,506,505,505,505,505,505,505,505,505,504,504,504,504,504,505,505,505,505,505,505,506,506,506,506,506,506,506,507,507,507,507,507,508,508,508,508,508,508,508,508,508,508,508,508,507,507,507,507,507,507,507,507,507,507,507,507,507,508,508,508,508,508,508,508,508,508,508,508,508,508,508,508,508,508,508,508,508,508,509,509,509,508,508,508,508,508,508,509,510,510,510,511,511,512,512,513,512,512,512,511,510,509,509,509,509,510,510,510,510,509,509,509,510,510,510,511,510,509,507,502,496,491,492,503,524,552,578,591,586,565,538,514,500,497,500,504,506,507,506,507,507,507,508,508,508,508,508,509,509,509,509,509,509,510,510,510,511,511,511,511,511,511,511,512,512,512,513,513,514,514,515,515,515,516,517,518,519,520,521,522,523,524,524,525,526,526,526,525,525,524,524,523,521,520,518,517,516,514,513,512,510,509,509,509,509,509,509,508,508,508,508,508,508,508,508,508,507,508,508,508,508,508,507,507,507,508,508,508,508,508,508,508,508,508,509,509,509,509,509,509,509,510,510,510,509,509,509,509,509,509,509,509,509,509,509,509,509,509,509,509,509,509,508,508,508,508,509,509,509,509,509,509,509,509,509,509,509,510,510,510,510,510,510,509,509,509,509,509,509,509,509,509,510,510,510,510,510,511,512,512,513,513,512,512,512,511,511,511,510,510,510,510,510,510,511,511,510,510,510,510,510,511,511,510,506,500,493,490,493,507,533,562,584,589,575,548,519,498,490,492,498,504,506,507,507,507,507,507,507,508,508,508,509,509,509,509,509,509,510,510,510,510,510,511,511,511,511,511,512,512,512,513,513,513,514,514,515,515,516,517,518,518,519,520,521,522,523,523,524,524,525,525,524,524,523,523,522,521,520,519,517,515,514,513,512,511,510,509,508,508,507,507,506,506,506,506,506,506,506,506,506,506,506,506,506,506,506,506,506,506,506,507,507,507,507,507,507,508,508,508,508,509,509,509,509,509,509,509,509,509,509,509,509,509,509,509,508,508,508,508,509,509,509,508,508,508,508,508,509,509,509,509,508,508,509,509,509,509,509,509,509,509,509,509,509,509,509,509,509,509,509,509,510,510,510,510,509,509,509,509,509,509,509,509,510,510,511,511,512,512,513,513,513,513,512,512,511,510,510,509,509,510,510,510,510,510,510,509,510,510,510,510,510,510,509,506,500,494,490,491,503,524,552,576,588,583,563,538,517,505,503,505,508,508,507,507,507,507,507,507,507,507,507,507,507,508,508,508,508,508,509,509,509,509,509,510,510,510,510,510,510,511,511,512,513,513,513,514,514,515,515,516,517,518,518,519,520,521,522,523,523,523,523,523,523,523,522,522,521,520,518,517,516,514,513,512,511,510,509,509,508,507,507,507,507,506,506,506,506,506,506,506,506,506,506,507,507,507,507,506,506,507,507,507,507,507,507,507,507,507,508,508,508,508,508,508,508,509,509,509,508,508,508,508,508,508,509,509,508,508,508,508,508,508,508,508,508,508,509,509,509,509,509,509,509,508,508,508,509,509,509,509,509,508,508,509,509,509,509,509,509,509,509,509,509,509,509,509,509,509,509,508,509,509,509,509,509,509,509,509,509,509,509,510,510,510,510,511,512,512,513,513,513,512,512,511,510,509,509,509,509,509,510,510,510,510,509,509,509,509,510,510,510,509,505,499,493,489,492,506,531,559,582,589,578,553,525,504,495,496,501,505,507,507,506,506,505,506,506,507,508,508,509,509,509,509,510,509,509,509,510,511,512,512,512,511,510,510,510,510,511,511,511,511,511,512,513,514,515,516,517,518,519,520,520,521,522,522,523,523,523,523,523,523,522,522,521,520,519,518,517,516,515,514,512,512,510,509,508,507,506,504,504,504,504,505,505,506,506,505,505,504,504,504,505,505,505,505,505,505,505,506,507,508,508,508,508,508,508,508,507,506,505,505,505,506,507,508,508,507,506,506,506,506,507,507,507,507,507,507,507,507,507,508,508,508,508,508,508,508,508,507,507,506,506,507,507,507,507,507,507,506,507,507,507,507,507,507,507,507,507,507,507,508,508,508,508,508,508,508,508,508,508,507,507,507,507,507,507,507,506,506,506,506,507,508,509,510,510,511,511,510,509,508,507,507,507,507,507,507,507,507,507,506,506,506,506,507,507,507,507,507,506,503,498,492,488,492,505,528,555,576,583,571,545,517,496,487,488,494,499,502,503,504,504,505,505,505,505,505,506,506,506,507,507,507,507,507,507,507,507,508,508,508,509,509,509,509,510,510,511,511,512,512,512,513,513,514,515,515,516,517,518,518,519,520,521,521,522,522,523,523,523,522,522,521,520,519,518,517,516,515,514,513,512,511,510,509,508,508,508,508,508,507,506,506,505,505,505,505,505,506,506,506,506,506,506,506,506,507,507,507,508,508,509,509,509,509,508,508,508,509,509,510,510,510,510,510,510,510,510,510,510,510,509,509,509,509,509,509,509,509,509,508,508,508,508,508,509,509,509,509,509,508,508,508,508,508,508,508,508,508,508,508,508,509,509,509,509,509,509,509,509,509,509,509,509,509,509,509,509,508,508,509,509,509,509,509,510,510,511,512,512,513,512,512,511,511,510,510,509,509,509,509,509,509,509,509,509,509,509,510,510,510,511,510,509,505,499,493,492,499,516,543,569,585,583,564,534,507,489,485,489,496,503,506,507,508,508,509,509,509,509,509,509,510,510,511,511,511,511,511,511,512,512,513,513,513,513,513,513,514,514,515,515,516,516,516,517,518,519,520,520,521,522,522,523,524,526,527,528,529,529,529,528,528,528,528,527,526,525,523,522,520,519,517,516,514,513,513,512,511,510,509,508,508,507,507,507,506,506,506,506,506,506,506,506,506,506,506,507,507,508,508,509,509,509,509,509,509,509,510,510,510,510,510,510,510,510,510,510,510,510,509,509,509,510,510,511,511,511,511,511,510,510,510,510,510,510,510,510,510,510,510,511,511,510,510,510,510,511,511,511,511,510,510,510,510,510,511,511,511,511,511,512,513,514,514,514,513,513,512,511,511,511,511,510,510,511,511,511,511,511,511,511,511,511,511,511,510,506,500,495,493,501,520,548,573,586,580,556,524,497,481,479,486,495,502,506,508,509,509,509,510,510,510,510,510,510,511,511,511,511,511,511,512,512,512,512,512,512,513,513,513,514,514,515,515,516,516,516,517,518,518,519,520,521,522,523,524,526,527,528,528,529,529,529,529,528,528,527,526,525,523,522,520,518,516,514,513,512,511,510,509,508,507,507,506,506,505,505,505,504,504,504,504,504,504,504,504,504,504,504,504,504,504,504,504,504,504,504,505,505,505,505,505,505,505,505,505,505,505,505,505,505,505,505,505,505,505,505,505,505,505,505,505,505,505,505,505,505,505,505,505,505,505,505,505,505,505,505,505,505,505,505,505,506,506,506,506,506,506,506,506,506,506,505,506,506,507,507,508,508,509,509,510,510,510,510,510,509,509,508,508,508,507,507,508,508,508,508,508,508,508,508,508,508,508,508,506,503,498,493,491,497,512,537,563,582,585,569,543,515,496,488,490,495,500,503,504,504,505,505,506,506,506,506,506,506,507,507,507,507,508,508,508,508,508,508,509,509,509,510,510,510,510,510,511,511,512,512,512,513,514,514,515,516,516,517,518,519,520,521,521,522,522,523,523,523,522,522,521,520,519,518,517,515,514,512,511,510,509,508,508,507,507,506,506,506,505,505,505,505,505,505,505,505,505,505,505,505,505,505,505,505,505,505,505,506,506,506,506,506,507,507,507,507,507,507,507,507,507,507,508,508,508,507,507,507,507,508,508,508,507,507,507,507,507,508,508,507,507,507,507,507,507,507,508,508,508,508,508,508,508,508,508,508,508,508,507,507,507,507,508,508,509,509,509,509,510,511,511,511,511,511,510,509,509,508,508,508,508,508,508,508,508,508,507,507,508,508,508,508,508,507,505,501,496,492,493,503,523,549,573,584,577,554,524,498,484,481,486,494,499,502,504,505,506,506,507,507,507,507,507,507,507,508,508,508,508,509,509,509,509,509,510,510,510,510,510,510,511,511,512,512,512,513,513,514,514,515,516,517,518,518,519,520,521,521,522,523,523,523,523,523,523,522,522,521,519,518,517,515,514,513,512,511,510,509,508,508,507,507,507,507,506,506,506,506,506,506,506,506,506,506,505,505,505,505,505,505,506,506,506,506,506,506,507,507,507,507,507,507,507,507,507,508,508,508,508,507,507,507,508,508,508,508,507,507,507,508,508,509,508,508,508,507,507,506,506,505,505,505,506,507,506,506,506,506,507,507,507,506,506,506,506,507,507,506,506,506,506,506,507,508,508,507,507,506,506,506,506,507,507,507,507,507,508,508,509,510,511,511,510,510,509,508,508,507,507,507,507,507,507,507,507,507,507,507,507,508,508,508,508,507,503,498,493,489,492,505,529,559,582,591,579,553,521,497,486,486,493,499,503,504,504,505,505,506,506,506,506,507,507,508,508,508,507,506,506,506,507,508,509,509,510,510,510,510,510,510,510,511,511,511,512,513,514,515,516,515,515,516,517,518,520,521,522,523,523,524,524,524,525,525,524,524,523,523,522,521,519,517,515,513,512,512,511,510,509,507,506,506,507,507,508,507,506,505,505,505,505,505,505,505,505,505,505,505,505,505,505,506,507,507,507,507,506,506,506,507,507,507,507,507,507,507,508,509,509,510,509,508,507,506,506,507,508,508,508,508,508,507,507,508,508,509,508,508,508,508,508,508,509,508,508,507,507,507,507,508,508,508,508,508,509,509,509,509,509,509,508,508,508,508,509,509,509,509,509,508,508,509,510,510,510,510,510,510,510,510,510,510,511,512,512,512,511,510,509,509,510,510,510,509,508,508,509,510,510,510,509,509,510,511,511,510,506,500,495,493,499,516,543,570,588,587,567,536,506,487,481,485,493,500,504,506,508,509,509,509,508,507,507,508,508,508,509,509,509,510,510,510,511,511,512,512,512,512,512,512,513,513,513,513,513,514,515,516,516,517,517,518,520,522,523,524,525,525,526,528,529,530,530,529,529,529,529,528,527,525,523,521,520,519,517,515,513,512,511,510,510,510,509,508,507,506,506,506,507,507,506,506,505,505,505,505,506,506,507,507,507,506,506,505,505,505,506,506,506,507,508,509,510,510,510,509,508,508,508,508,509,509,509,508,508,508,509,509,509,509,509,508,508,508,508,508,508,508,508,508,508,508,508,509,508,508,508,508,508,509,510,510,509,509,509,509,509,509,508,508,508,508,508,509,509,509,508,508,508,508,508,509,510,510,510,510,509,509,509,509,509,508,508,508,508,509,510,510,511,511,512,512,513,513,513,512,511,509,508,508,509,509,509,509,509,509,508,508,509,509,509,510,510,510,508,505,501,495,491,491,500,521,549,577,594,591,571,541,514,498,493,496,502,505,506,506,506,506,506,506,506,506,506,507,507,508,508,508,508,508,508,508,509,510,511,511,510,510,509,509,510,511,512,512,512,512,512,513,514,514,515,515,515,516,518,520,521,522,523,523,524,524,525,526,526,526,526,525,523,522,520,519,518,517,515,513,512,510,509,509,509,508,508,507,506,505,505,505,506,506,506,506,506,505,505,505,506,506,506,506,506,505,505,506,506,507,507,507,507,506,506,506,506,507,507,507,508,507,507,507,507,507,507,508,509,509,508,508,507,507,507,508,508,508,508,508,507,507,507,507,507,508,508,508,507,507,507,507,508,508,509,509,509,508,508,508,508,508,509,510,510,509,508,507,507,507,507,507,508,508,508,508,508,507,507,508,509,509,509,509,509,509,509,510,512,512,512,512,511,510,509,509,508,508,508,508,508,508,508,508,508,508,508,509,509,509,509,507,504,499,493,489,492,505,528,557,581,591,581,557,527,504,492,492,497,502,504,504,505,505,505,506,506,506,506,506,507,507,508,508,508,508,508,508,508,508,508,508,509,509,510,510,510,510,510,510,511,511,512,513,514,514,515,515,515,516,517,518,519,520,521,522,523,524,524,525,525,525,525,524,524,522,521,519,518,516,515,513,512,511,510,509,508,507,506,506,506,506,506,506,505,505,505,505,505,505,505,505,506,506,506,505,505,505,506,506,506,506,506,505,505,505,506,506,506,507,507,507,506,506,506,507,507,507,508,508,508,508,508,508,508,508,507,507,507,507,507,507,507,508,508,508,507,507,507,507,507,508,508,507,507,507,508,508,508,508,508,508,508,508,508,508,508,508,508,508,508,508,508,508,508,509,508,508,507,507,507,508,508,509,509,510,510,511,512,512,512,511,511,510,510,509,509,509,509,509,509,509,509,509,509,509,509,509,509,509,508,508,508,506,502,497,493,493,502,521,548,573,587,582,561,532,506,491,488,493,499,503,505,505,506,507,507,508,508,509,508,508,508,509,509,510,510,510,510,510,510,510,511,511,512,512,512,512,512,513,513,514,514,515,515,515,516,516,517,517,518,519,520,521,522,523,524,525,525,526,526,527,527,526,526,525,524,523,522,521,520,519,517,515,514,513,512,512,511,510,509,509,508,508,508,508,508,508,508,508,508,508,508,508,508,508,508,508,508,508,508,508,508,508,509,509,509,509,509,509,510,510,510,510,510,510,510,510,510,510,510,510,510,510,510,510,510,510,510,510,510,510,510,510,510,510,510,509,509,510,510,510,509,509,509,509,509,510,510,510,510,510,510,510,509,509,509,509,509,509,509,509,509,509,509,509,509,509,509,509,508,508,509,509,509,509,509,509,509,509,509,509,509,509,509,509,509,509,509,508,509,509,510,510,511,511,511,512,512,512,512,512,512,511,511,510,510,509,509,509,509,509,509,509,509,509,509,509,509,509,509,509,509,508,505,500,494,492,495,509,532,560,582,589,577,551,522,500,489,489,495,501,504,505,505,506,506,507,507,507,508,508,508,508,508,509,509,509,509,509,509,509,509,510,510,510,510,510,511,511,511,512,512,512,513,513,513,514,515,515,516,516,517,518,518,519,520,521,522,522,523,523,523,523,523,523,523,522,521,520,519,517,516,515,514,513,512,511,510,509,508,508,508,507,507,507,507,507,507,507,507,506,506,506,507,507,507,507,507,507,507,507,507,507,507,507,507,507,507,507,508,508,508,508,508,508,508,508,508,508,508,508,508,508,508,508,508,508,507,507,507,508,508,508,508,508,507,507,507,507,508,508,508,508,508,508,508,508,508,508,508,508,508,508,508,508,508,508,509,509,509,509,509,509,509,509,509,509,510,510,510,509,509,509,509,509,509,509,510,510,510,510,510,510,510,510,510,510,510,510,510,510,511,511,512,512,513,513,513,513,513,513,513,512,512,511,511,510,510,510,510,510,510,510,510,510,510,510,510,510,510,510,510,510,509,507,502,497,493,496,509,531,558,579,586,575,551,523,502,492,492,497,502,505,507,507,507,508,508,508,508,508,509,509,509,509,509,509,509,509,510,510,510,510,510,511,511,511,511,512,512,512,512,513,513,513,514,514,515,515,516,516,517,518,519,520,520,521,521,522,523,523,524,524,524,524,523,523,522,522,521,520,519,518,517,516,514,513,512,512,510,510,509,509,508,508,508,508,508,507,507,507,507,507,507,507,508,508,508,508,508,508,508,508,508,508,508,508,508,508,509,509,509,509,509,509,509,509,509,509,509,509,509,509,509,509,508,508,508,509,509,509,510,510,510,510,510,510,509,509,509,509,510,509,509,509,509,509,509,509,509,509,509,509,509,509,509,509,509,509,509,509,509,509,510,510,510,510,509,509,509,509,509,510,510,509,509,509,510,510,510,510,510,510,510,510,510,510,510,510,510,510,511,511,511,512,512,513,513,513,513,513,513,513,512,511,511,510,510,510,510,510,510,510,510,510,510,510,510,510,510,510,510,510,510,508,504,499,495,495,504,522,547,570,582,577,557,529,505,491,488,492,499,504,506,507,507,507,508,508,508,508,508,508,508,509,509,509,509,509,509,509,510,510,510,510,510,511,511,511,511,512,512,512,512,513,513,513,514,514,515,515,516,517,517,518,519,520,520,521,522,522,523,523,523,523,523,522,522,521,521,520,519,518,517,516,515,514,513,512,511,511,510,510,509,509,509,508,508,508,508,508,508,508,508,508,508,508,508,508,508,508,508,508,508,508,508,508,508,508,508,508,508,508,508,508,508,508,508,508,508,508,508,508,508,508,508,508,508,508,508,508,508,508,508,508,508,507,507,507,507,507,507,507,508,508,508,508,508,508,508,508,508,508,508,508,508,508,508,508,508,508,508,508,508,508,508,508,508,508,508,508,508,508,509,509,509,510,510,510,510,509,509,509,510,511,511,512,513,513,513,514,514,514,514,513,513,513,512,512,511,511,511,511,511,511,510,510,510,511,511,511,511,511,511,512,511,510,507,501,496,494,498,514,538,564,582,584,566,538,509,489,482,486,494,501,505,507,508,508,509,509,510,510,510,510,510,510,511,511,511,511,512,512,512,512,512,512,512,512,513,513,514,514,514,514,514,515,515,516,516,517,517,518,519,519,520,521,522,523,523,524,525,525,525,526,526,526,526,525,525,524,523,522,521,519,518,517,516,514,513,512,511,511,510,509,509,509,508,508,508,508,508,507,507,507,507,507,507,507,507,508,508,508,508,508,508,509,509,509,509,509,509,509,509,509,509,509,509,509,509,509,509,509,509,509,509,509,509,509,509,509,509,509,509,509,509,509,509,509,509,509,509,509,509,509,509,509,509,509,509,509,509,509,509,509,509,509,509,509,509,509,509,509,509,509,509,509,509,509,509,509,509,509,510,510,511,511,512,512,512,512,512,512,512,512,511,511,510,510,509,509,509,509,509,509,509,509,509,509,509,509,509,509,509,508,505,501,495,491,492,503,524,550,573,582,574,551,522,500,488,487,493,500,503,505,505,505,506,506,507,507,507,507,507,507,507,508,508,508,508,508,509,509,509,509,509,509,510,510,510,510,511,511,511,512,512,512,513,513,514,514,515,515,516,517,518,519,519,520,521,521,522,522,522,522,522,521,521,520,519,518,517,516,515,513,512,511,510,509,509,508,507,507,506,506,506,505,505,505,505,505,505,505,505,505,505,505,505,505,505,505,505,505,505,506,506,506,506,506,507,506,506,506,507,507,507,507,507,507,507,507,507,507,507,507,507,507,507,507,507,507,507,507,507,507,507,507,507,507,507,507,507,507,507,507,507,507,507,507,508,508,508,508,508,508,507,507,508,508,508,508,507,507,507,507,507,508,508,509,509,509,510,510,510,511,511,511,511,510,509,508,508,507,507,507,507,508,508,508,507,507,507,507,507,507,507,507,507,504,500,495,491,492,503,522,548,571,582,575,553,525,501,489,488,493,499,502,504,504,505,505,505,506,506,506,506,506,506,507,507,507,507,507,507,507,508,508,508,508,508,509,509,509,509,509,510,510,511,511,512,512,512,513,513,514,514,515,515,516,517,518,518,519,520,520,520,520,520,520,520,519,518,518,517,515,514,513,512,511,510,509,508,507,506,505,505,504,504,504,504,503,503,503,503,503,503,503,503,503,503,503,503,503,503,503,504,504,504,504,504,504,504,504,504,504,504,504,504,504,504,505,505,505,505,505,505,505,505,505,505,505,505,505,505,505,505,505,505,505,505,505,505,505,505,505,505,505,505,505,505,505,505,506,506,505,505,505,505,506,506,506,505,505,505,505,505,505,505,505,506,507,507,508,508,508,509,509,510,510,510,509,508,508,507,507,506,506,507,507,507,507,507,507,507,507,507,507,507,507,507,507,505,501,496,492,491,497,513,537,562,579,579,562,535,509,491,485,488,495,500,503,504,504,504,504,505,505,505,505,505,505,506,506,506,506,506,507,507,507,507,507,507,508,508,508,508,508,509,509,509,509,510,510,511,511,512,512,513,514,514,515,515,516,517,518,518,519,519,519,520,520,520,520,519,519,518,517,516,515,514,513,512,510,509,508,508,507,506,506,505,505,504,504,504,504,504,504,504,504,504,504,504,504,504,504,504,504,504,504,504,504,504,504,504,504,504,504,505,505,505,505,505,505,505,505,505,505,505,505,505,505,505,505,505,505,504,504,504,505,505,505,504,504,504,504,504,505,505,505,504,504,504,505,505,505,505,505,505,505,505,505,505,505,505,505,505,505,506,505,505,505,505,505,506,506,506,505,505,504,504,504,505,506,507,507,507,508,508,508,509,510,510,510,509,508,507,506,506,506,506,506,507,507,507,507,507,506,506,506,506,506,507,507,507,506,503,499,494,490,492,503,524,549,571,580,572,548,520,497,484,483,488,496,500,502,503,504,504,505,505,505,506,506,506,506,506,507,507,507,507,507,507,507,508,508,508,508,509,509,510,510,510,510,510,511,511,511,512,512,512,513,514,514,515,515,516,517,518,518,519,520,520,520,520,520,520,520,519,519,518,518,517,516,515,514,513,512,511,510,509,509,508,507,507,506,506,505,505,505,505,506,506,505,505,505,505,505,505,505,505,506,506,506,506,506,506,506,507,507,507,507,507,507,507,507,507,507,507,507,508,508,508,508,508,508,508,508,508,508,508,508,508,508,508,508,507,507,507,507,507,507,507,507,507,507,507,508,508,508,508,508,508,508,508,508,508,508,508,508,508,508,508,508,509,509,509,509,509,509,509,508,508,508,508,508,508,508,508,509,510,511,511,512,512,512,512,512,513,512,512,511,510,510,510,510,510,510,510,510,510,510,510,511,510,510,510,510,510,510,510,510,508,503,498,493,494,504,525,552,576,587,579,556,526,501,487,485,490,498,503,505,507,507,508,508,508,508,509,509,509,509,509,510,510,510,510,510,511,511,511,511,511,511,511,512,512,512,512,513,513,513,514,514,514,515,516,516,517,517,518,519,519,520,521,522,522,523,523,524,524,524,524,524,523,523,522,521,520,518,517,516,515,513,512,512,511,510,510,509,508,508,508,507,507,507,507,507,507,507,507,507,507,507,507,507,507,507,507,507,508,508,508,508,508,508,508,509,509,509,509,509,509,509,509,509,509,510,509,509,509,509,509,509,509,509,509,509,509,509,508,508,508,509,509,509,509,509,508,508,508,508,508,508,508,508,508,508,508,508,508,508,508,508,508,509,509,508,508,508,508,508,508,509,509,509,509,509,509,509,509,509,509,509,509,509,508,508,508,507,508,508,509,509,510,510,511,511,512,512,512,512,512,511,510,509,509,509,509,509,510,510,509,509,510,509,509,509,509,509,510,510,510,510,509,506,501,496,493,496,509,531,557,578,584,573,549,522,501,491,491,496,502,505,506,506,507,507,507,508,508,508,508,508,508,509,509,509,509,509,509,510,510,510,511,511,511,511,511,511,511,511,512,512,512,512,513,514,514,515,515,516,517,517,518,519,519,520,521,522,523,523,523,524,524,524,523,523,522,521,520,519,518,517,516,515,514,513,512,511,511,510,509,509,508,508,507,507,507,507,507,507,507,506,506,506,506,507,507,507,507,507,507,507,507,507,507,507,507,508,508,508,508,508,508,508,508,508,508,508,508,508,508,508,508,508,508,508,508,508,508,508,508,508,507,507,507,507,507,508,508,508,507,507,507,507,507,507,507,507,507,507,507,507,508,508,508,508,508,508,508,508,508,508,508,508,508,508,508,508,508,509,509,509,509,509,509,509,509,509,509,509,508,508,508,508,509,509,510,510,511,511,511,512,513,513,513,513,512,512,511,510,510,511,511,511,511,511,511,511,511,511,510,510,511,511,511,511,511,511,509,505,500,495,494,501,518,543,569,585,585,567,540,513,496,490,493,499,504,507,507,508,508,509,509,509,509,509,510,510,510,510,510,510,511,511,511,511,511,511,512,512,512,512,512,512,512,513,513,513,514,514,515,515,516,516,516,517,518,518,519,520,521,522,522,523,524,524,524,524,524,524,524,524,523,522,521,520,518,517,515,514,513,512,511,511,510,509,509,508,508,507,507,507,507,507,507,506,506,506,506,506,506,506,506,506,506,506,506,506,506,506,507,507,507,507,507,507,507,508,508,508,508,507,507,508,508,508,508,508,508,508,508,508,508,507,507,507,507,508,508,507,507,507,507,507,507,507,507,507,507,507,508,507,507,507,507,507,508,508,508,508,508,508,508,508,508,508,508,508,508,508,508,508,508,508,508,508,508,508,508,508,508,509,509,509,509,509,509,509,509,509,508,508,508,507,508,508,509,510,510,510,510,511,511,512,512,512,511,511,510,509,509,509,509,509,510,509,509,509,509,509,509,509,509,510,510,510,510,508,505,500,495,493,498,513,537,563,581,583,566,537,508,488,481,485,492,500,504,506,507,507,508,508,508,509,509,509,509,509,510,510,510,510,510,510,510,510,511,511,511,511,511,512,512,512,512,513,513,513,513,514,514,515,515,516,517,518,518,519,520,521,522,522,523,524,525,525,525,525,525,525,524,524,523,522,521,519,518,516,515,513,512,511,510,510,509,508,508,507,507,507,507,507,506,506,506,506,506,506,506,506,506,506,507,507,507,507,507,507,507,507,508,508,508,508,508,508,508,508,508,509,509,509,509,509,509,509,509,509,509,508,508,508,508,508,508,508,508,508,508,508,508,508,508,508,508,508,508,508,508,508,508,508,508,508,508,508,508,508,508,508,508,508,509,509,509,509,509,509,509,509,508,508,509,509,509,509,509,509,509,509,509,509,509,509,509,508,508,508,508,508,508,508,508,508,508,508,509,510,510,511,511,512,512,512,512,512,511,510,510,510,509,509,509,509,509,510,510,510,510,509,509,510,510,510,510,510,509,507,502,497,494,494,504,522,547,569,581,576,557,531,509,497,495,499,504,506,507,507,507,507,508,508,508,509,509,509,509,509,509,510,510,510,510,510,510,510,510,511,511,511,511,512,512,512,512,512,513,513,514,514,515,515,516,516,517,517,518,519,520,521,521,522,523,524,524,525,525,525,524,524,524,523,522,521,519,518,516,515,513,512,511,511,510,509,509,508,507,507,507,507,507,507,507,507,507,507,506,506,506,506,506,506,506,506,506,506,506,506,507,507,507,507,507,507,507,507,507,507,507,507,508,508,508,508,508,508,508,508,508,508,508,507,507,507,507,508,508,507,507,507,507,507,507,507,507,507,507,507,507,507,507,507,507,507,507,507,507,507,507,507,507,507,506,506,506,506,506,506,506,507,507,508,508,508,509,509,510,510,510,510,509,508,508,507,507,507,507,507,507,507,507,507,507,507,507,507,507,507,507,507,506,505,501,496,492,491,497,512,536,561,578,579,563,538,513,496,490,492,498,501,503,503,503,504,504,504,504,504,504,504,504,505,505,505,506,506,506,506,506,506,506,507,507,507,507,507,507,508,508,508,509,509,509,509,510,511,511,512,512,513,514,515,515,516,517,518,518,519,520,520,520,520,520,520,519,518,517,516,515,513,512,511,509,508,507,506,505,505,504,503,503,503,503,503,503,502,502,502,502,502,502,502,502,502,502,502,502,502,502,502,502,502,502,503,503,503,503,503,503,503,503,503,503,504,504,504,504,503,503,503,503,503,504,504,504,504,503,503,503,503,503,503,503,503,503,503,503,503,503,503,503,503,503,503,503,503,503,503,503,503,503,503,504,504,504,504,504,503,503,503,503,503,503,503,503,504,504,505,505,506,506,507,507,507,507,507,506,506,505,505,504,504,504,504,505,505,505,505,505,505,504,504,504,505,505,505,505,504,501,497,492,489,491,503,524,549,570,578,568,545,517,496,485,485,490,496,500,501,502,502,503,503,503,503,503,504,504,504,504,504,505,505,505,505,505,505,505,505,505,505,505,506,506,506,506,506,506,506,507,507,507,508,508,509,509,510,511,511,512,512,513,514,515,516,516,517,517,517,517,517,517,516,516,515,514,513,512,510,509,508,507,506,505,504,504,503,503,502,502,502,502,502,502,502,502,502,502,502,502,502,502,502,502,502,502,502,502,503,503,503,503,504,503,503,504,504,505,505,505,504,504,505,506,508,509,510,510,509,506,503,500,498,496,496,497,499,501,503,504,504,503,503,503,503,504,505,505,505,505,505,506,506,506,506,506,506,507,508,509,510,510,509,508,507,506,506,506,505,506,509,512,516,517,514,509,503,499,499,501,504,506,506,507,507,508,509,510,511,511,512,512,512,512,512,511,510,510,510,510,510,510,510,511,511,510,510,511,511,512,511,510,507,506,505,506,506,505,501,497,495,500,513,534,557,575,579,568,546,521,502,494,494,499,504,507,508,508,508,509,510,512,513,513,511,508,505,503,504,506,509,510,510,510,510,510,511,511,511,511,512,512,512,512,513,514,514,514,514,514,514,514,515,515,516,516,516,517,517,518,520,521,522,524,524,524,522,521,519,518,517,516,515,515,514,514,514,514,513,513,512,512,512,511,511,510,509,508,508,508,509,509,509,509,508,507,507,507,507,506,506,507,508,509,510,510,509,508,507,506,506,507,507,507,507,508,507,507,507,507,507,507,506,506,506,507,507,506,506,505,505,505,506,506,506,506,506,505,505,505,506,506,506,506,505,505,505,505,504,504,504,505,507,508,509,509,508,507,506,507,507,507,507,507,506,507,508,509,510,510,510,509,508,508,508,509,509,509,509,509,509,508,508,508,509,510,510,510,509,508,507,507,507,505,501,497,495,498,511,531,554,570,571,557,531,505,484,475,476,483,491,498,502,505,506,506,507,507,507,507,507,508,508,508,509,509,509,509,509,509,509,509,510,510,510,510,510,510,511,511,512,512,513,514,514,514,514,514,514,514,515,516,517,518,519,519,519,519,520,520,520,521,521,521,521,520,519,519,518,517,517,517,516,516,515,514,514,513,512,510,509,508,507,507,508,509,510,509,508,507,507,507,508,508,508,508,506,505,505,506,507,507,507,507,506,505,505,506,506,507,507,507,506,506,505,505,505,505,505,505,505,505,505,505,505,505,505,505,504,504,504,504,504,505,505,505,505,505,505,505,506,506,506,506,505,505,506,506,507,507,507,507,508,508,508