508,508,508,508,508,508,508,508,508,508,507,508,508,507,507,507,507,507,508,509,510,510,511,511,511,511,511,511,510,510,510,510,510,510,509,509,509,509,508,509,509,510,511,510,509,508,508,509,509,510,509,506,500,495,493,498,514,538,563,579,580,564,538,513,498,493,496,502,506,508,508,508,508,508,509,509,509,509,509,509,509,509,510,510,510,511,511,510,510,511,511,511,512,512,512,512,512,512,512,513,513,513,514,514,515,515,516,517,518,519,519,519,519,519,520,521,522,523,523,523,522,522,521,521,520,519,517,516,514,513,512,512,512,512,511,510,508,507,507,507,507,507,508,507,507,506,506,506,507,507,507,508,508,508,508,508,508,508,508,508,508,507,507,507,507,508,508,508,508,508,508,509,510,510,510,509,509,508,508,508,509,510,510,510,509,509,508,508,509,509,509,509,509,508,508,509,509,509,509,509,508,508,507,507,508,509,510,511,511,511,512,512,512,512,512,511,510,509,509,509,509,509,510,510,510,509,509,509,509,510,510,510,509,509,509,509,508,507,504,499,494,492,497,512,536,562,580,583,569,544,518,501,494,496,501,505,507,507,507,507,507,507,507,508,508,508,508,508,508,508,509,509,509,509,509,509,509,509,510,510,510,510,511,511,511,512,512,512,512,513,513,514,514,515,515,516,516,517,518,519,520,520,520,520,520,520,520,520,520,520,519,519,518,518,517,515,513,511,509,509,508,509,508,508,507,505,504,504,504,505,506,506,506,505,505,504,504,504,505,505,505,505,506,506,506,505,505,504,505,505,506,507,507,506,506,506,506,507,507,507,507,507,506,506,506,506,507,508,508,508,507,506,506,506,506,507,507,507,507,506,506,506,506,506,506,506,506,507,508,508,509,509,509,510,511,511,511,510,508,507,506,506,507,507,508,508,508,508,508,508,508,508,508,508,507,508,508,508,508,506,503,497,492,490,495,511,536,561,578,578,561,534,508,491,486,491,498,504,506,507,507,506,506,507,507,508,508,508,508,508,508,508,508,508,509,509,509,509,509,509,510,510,511,511,512,512,513,513,513,513,513,514,514,514,515,515,516,516,517,518,519,520,521,522,522,522,522,522,523,523,523,523,521,519,517,515,514,514,513,512,511,510,509,508,507,506,506,506,506,506,506,505,505,505,505,505,505,505,505,504,504,504,504,504,504,505,505,506,507,507,507,507,507,506,506,506,506,506,506,506,507,507,508,508,508,508,507,507,507,507,508,508,508,507,507,506,506,506,506,506,507,507,506,506,505,505,505,506,507,508,509,510,511,512,512,512,510,509,508,508,508,508,508,508,508,508,508,508,507,507,508,508,509,509,509,509,508,508,507,507,505,502,497,493,492,500,518,542,566,578,574,554,528,504,491,489,493,500,504,506,506,507,507,507,508,508,508,509,509,509,509,509,509,509,510,510,510,510,509,509,509,510,510,511,511,511,512,512,512,513,513,514,514,514,514,514,515,516,518,519,519,519,520,520,521,522,523,523,522,521,520,520,519,519,519,518,517,516,514,513,512,511,511,510,509,508,508,507,507,506,506,506,506,506,506,507,507,506,506,505,505,505,506,507,507,508,507,507,506,506,505,506,507,507,508,508,507,507,507,508,508,508,509,508,508,508,507,507,507,508,508,508,508,508,508,508,508,509,509,509,508,507,507,507,507,508,508,507,506,506,507,508,509,510,510,510,511,511,512,512,511,511,510,509,509,509,509,509,509,508,508,508,508,509,509,509,509,508,508,508,508,509,509,508,505,500,495,491,495,508,531,557,577,583,571,548,523,504,496,497,501,505,507,508,508,508,508,507,507,507,507,507,508,509,510,510,511,511,510,509,508,509,509,510,510,511,511,511,511,512,512,512,512,512,513,513,514,514,514,514,515,515,516,518,518,519,519,520,520,521,522,523,522,521,520,519,519,519,518,517,515,514,513,513,512,511,510,509,508,507,507,507,507,507,506,505,505,505,506,506,506,506,505,505,506,506,507,507,507,507,507,507,506,506,506,507,507,507,507,507,507,506,506,507,507,508,508,508,508,508,509,509,508,508,507,507,507,508,508,508,508,508,508,508,508,508,508,508,507,507,507,507,507,507,507,508,509,509,510,510,510,511,511,511,511,510,509,508,508,508,508,508,509,509,509,509,508,508,508,508,508,508,508,508,509,509,508,507,503,498,493,491,497,512,535,560,578,580,565,541,516,499,493,495,500,504,506,506,506,506,506,507,507,507,507,508,508,508,508,508,508,509,509,509,510,510,510,510,510,510,510,510,510,511,512,512,512,512,512,513,513,514,515,516,516,517,517,518,518,519,520,521,521,521,522,522,522,522,521,521,520,520,518,517,515,514,513,512,512,511,510,509,508,508,507,507,506,506,506,506,506,506,506,506,506,506,506,506,505,505,505,505,505,506,506,507,507,507,506,506,506,507,507,508,508,508,508,507,507,507,507,508,508,509,509,509,508,507,507,507,507,508,508,508,507,506,506,507,508,508,508,508,507,506,506,506,507,508,509,509,509,508,509,510,511,512,511,510,509,508,508,508,508,509,509,509,509,508,508,508,508,508,508,509,509,509,509,508,508,507,504,500,494,491,494,508,530,556,575,579,565,540,513,494,487,490,496,502,505,507,507,507,507,507,507,507,508,508,508,509,509,509,509,509,509,509,510,510,511,511,510,510,510,510,510,511,512,512,513,513,513,513,514,514,516,516,516,516,517,517,519,520,521,521,520,520,521,522,523,523,522,521,520,520,519,518,516,515,514,513,512,511,509,508,507,507,507,507,506,506,505,505,505,505,505,505,505,506,506,506,506,506,505,505,506,506,506,506,507,507,507,507,506,506,507,507,508,509,508,507,507,507,508,509,509,508,508,507,507,508,508,508,508,508,508,509,510,510,509,508,507,507,507,509,510,510,509,507,506,505,505,506,508,509,509,510,510,510,511,511,512,512,511,511,510,510,510,510,510,510,509,508,507,507,508,508,509,509,508,508,509,509,510,510,510,509,507,505,501,496,492,494,505,526,552,574,583,574,552,526,506,496,495,499,504,506,507,507,508,508,509,509,509,508,508,507,507,508,509,510,510,510,510,510,510,510,511,511,512,512,511,511,511,511,512,512,512,512,513,513,514,515,516,517,517,518,518,518,518,519,521,521,521,521,521,521,521,521,521,520,520,519,518,517,515,514,513,512,512,511,510,509,508,508,507,507,507,506,506,507,507,507,507,506,506,506,506,506,506,506,507,507,507,507,506,506,506,507,507,507,507,507,507,508,508,508,508,508,508,507,507,508,508,508,508,508,508,509,509,509,509,508,508,507,507,507,508,508,509,509,509,508,508,508,508,508,507,507,507,507,507,508,509,510,511,512,512,512,512,511,510,509,509,509,509,509,509,509,508,508,508,508,509,509,509,509,508,508,509,509,509,509,507,504,499,495,492,497,511,534,559,578,581,567,542,517,500,493,495,501,505,507,507,507,507,507,508,508,508,508,508,508,508,508,509,509,509,509,509,509,510,510,510,510,510,511,511,512,512,512,512,512,512,513,513,514,514,515,515,516,516,517,518,518,519,520,520,521,521,521,521,521,521,521,520,520,519,518,517,516,514,513,513,512,510,509,508,507,507,507,507,507,506,506,506,506,505,505,505,505,505,505,505,505,505,506,506,506,506,506,506,506,506,507,507,507,507,507,507,507,507,507,507,507,507,508,508,508,508,508,508,508,508,508,508,508,508,508,508,508,508,508,508,508,508,508,508,507,507,507,507,507,507,507,507,507,508,508,509,509,510,510,511,511,511,511,510,510,509,508,508,508,508,508,508,508,509,509,509,509,508,509,509,509,509,509,509,509,508,505,499,494,491,496,511,535,560,578,579,563,537,511,494,489,493,499,505,507,507,508,508,508,508,508,508,509,509,509,509,509,509,509,510,510,510,510,510,511,511,511,511,512,512,512,512,512,513,513,513,514,514,514,515,515,516,517,517,518,519,520,520,521,521,522,522,523,523,523,523,522,522,521,520,519,518,517,515,514,513,512,511,510,509,508,508,507,507,507,506,506,506,506,506,506,506,506,505,506,506,506,506,506,506,507,507,506,506,506,507,507,507,507,507,507,507,508,508,508,508,508,509,509,509,509,509,509,508,508,508,508,508,508,508,508,508,508,508,508,508,508,508,508,508,508,508,508,508,508,507,507,507,507,508,508,509,510,510,511,511,512,512,512,511,511,510,509,509,509,508,509,509,509,509,509,509,509,509,509,509,509,509,509,509,509,509,507,504,499,494,493,498,513,536,561,578,579,564,539,514,497,491,494,500,505,507,507,507,508,508,508,508,508,508,508,508,509,509,509,509,509,509,510,510,510,510,511,511,511,511,511,512,512,512,512,512,513,513,514,514,515,515,516,516,516,517,518,518,519,520,520,521,521,522,522,522,522,521,521,520,520,519,518,516,515,514,513,512,511,510,509,508,508,507,507,506,506,506,506,506,506,506,505,505,505,506,506,506,506,506,506,506,506,506,506,506,506,506,507,507,507,507,507,507,507,507,507,507,507,508,508,508,508,508,508,508,508,507,507,507,507,507,507,507,507,507,507,507,507,507,507,507,507,507,507,507,506,506,506,507,507,508,509,509,509,510,510,511,511,510,510,509,509,508,508,508,508,508,508,508,508,508,508,508,508,508,508,508,508,508,509,509,507,505,500,495,492,496,509,530,554,572,577,565,541,516,498,491,492,498,503,506,507,507,507,508,508,508,508,508,508,508,508,509,509,509,510,510,510,510,510,510,510,511,511,511,511,512,512,512,512,512,512,513,513,514,514,515,515,516,516,517,517,518,519,519,520,520,521,521,521,521,521,521,521,520,519,518,518,517,515,514,513,512,511,510,510,509,508,508,508,507,507,507,507,507,507,507,507,507,507,507,507,507,507,507,507,507,507,507,507,507,508,508,508,508,508,508,508,508,508,508,509,509,509,509,509,509,509,509,509,509,509,509,509,509,509,509,509,509,509,509,509,509,509,509,509,509,508,508,508,507,507,508,509,510,510,511,511,511,512,512,512,512,511,510,510,509,509,509,509,509,509,509,509,509,509,509,509,509,509,509,509,510,510,509,508,505,501,496,494,498,512,534,558,574,576,562,538,513,495,489,491,497,503,506,508,508,508,508,509,509,509,509,509,509,509,510,510,510,510,511,511,511,511,511,511,511,512,512,512,512,513,513,513,513,514,514,514,515,515,516,516,517,518,518,519,520,520,521,521,522,522,522,522,522,522,522,522,521,520,519,518,517,516,515,514,513,512,512,511,510,509,508,508,508,508,508,508,508,508,508,508,508,507,507,507,507,508,508,508,508,508,508,509,509,509,509,509,509,509,509,509,509,509,509,509,509,509,509,509,509,509,509,509,509,509,509,509,508,508,508,508,508,508,507,508,508,509,510,510,511,511,511,512,512,512,511,510,510,509,509,509,509,509,509,509,509,509,509,509,509,509,509,510,510,510,510,510,510,508,504,498,495,495,505,524,548,569,577,568,544,516,493,482,481,488,496,502,505,507,508,508,509,509,509,509,510,510,510,510,510,511,511,511,511,511,512,512,512,512,512,512,512,513,513,513,513,514,514,514,515,515,516,516,517,517,518,519,520,521,521,522,522,523,523,523,523,523,524,524,523,523,522,521,520,518,517,516,514,513,512,511,510,509,509,508,508,508,507,507,507,507,507,507,507,507,507,507,507,507,507,507,507,507,508,508,508,508,508,508,508,508,508,509,509,509,509,509,509,508,509,509,509,509,509,509,509,509,509,509,509,509,508,508,508,508,507,508,508,509,509,510,510,511,512,512,512,512,511,510,509,509,509,510,510,510,509,509,508,508,508,509,509,509,509,509,509,509,509,509,508,506,501,496,493,497,509,530,555,573,577,565,542,518,500,493,494,499,504,506,507,507,507,508,508,508,509,509,509,509,509,509,509,509,509,510,510,510,510,510,510,510,511,511,511,512,512,512,512,513,513,513,513,514,514,515,515,516,517,517,518,519,519,520,521,521,522,522,522,522,522,521,521,520,519,518,518,517,516,514,513,511,510,510,509,508,507,507,506,506,507,506,506,506,506,506,506,506,506,507,507,507,507,507,507,507,507,507,507,507,507,507,507,507,507,507,507,507,508,508,508,509,509,509,508,508,508,508,508,507,507,506,506,506,507,508,509,510,510,511,511,512,512,512,511,510,509,509,508,508,508,508,508,508,508,509,509,509,509,508,508,508,508,508,509,509,509,507,503,498,493,491,498,515,540,564,579,577,561,537,515,501,497,499,504,507,508,508,507,507,507,507,508,508,508,508,508,508,508,508,508,509,509,509,509,509,510,510,510,510,510,511,511,511,512,512,512,512,513,513,513,514,514,515,516,516,517,517,518,519,520,520,520,520,520,520,520,520,520,519,518,517,516,515,514,513,512,511,510,509,509,508,507,507,506,506,506,506,506,506,506,506,506,506,506,506,506,506,506,506,506,506,506,506,506,506,506,506,507,507,507,507,507,507,507,507,507,507,507,507,507,507,507,507,507,507,507,507,507,508,509,509,510,510,511,511,511,511,510,509,508,508,507,508,508,508,508,507,507,507,507,508,508,508,508,508,508,508,508,508,506,502,496,492,491,499,517,542,566,579,575,557,533,511,499,497,500,504,507,507,507,507,507,507,507,507,507,507,507,508,508,507,507,508,508,509,509,509,509,509,509,510,510,510,510,511,511,511,511,511,512,512,513,513,514,514,515,516,516,517,517,518,518,518,519,519,520,520,520,520,519,519,518,518,517,516,515,514,512,511,510,509,508,508,508,507,507,507,506,506,505,505,505,505,505,505,505,506,506,506,506,506,506,506,506,507,507,507,506,506,506,506,507,507,507,507,507,507,507,507,507,507,506,506,507,507,508,508,509,509,510,510,511,511,511,511,510,509,508,508,507,507,508,508,508,508,508,508,507,507,507,508,508,508,508,508,509,508,507,503,498,493,491,497,512,536,560,575,576,561,537,513,498,494,496,502,505,507,507,507,507,507,507,507,507,507,507,507,508,508,508,508,509,509,509,509,509,509,510,510,510,510,511,511,511,511,512,512,512,513,513,513,514,515,515,516,516,516,517,517,518,519,519,520,520,520,520,520,520,519,519,518,517,516,515,514,513,512,511,510,509,508,508,507,507,507,506,506,506,506,506,506,506,506,506,506,506,506,506,506,506,506,506,507,507,507,507,507,507,507,507,507,507,507,507,507,507,507,507,507,506,506,507,507,508,509,510,510,510,511,511,512,512,511,510,509,508,508,508,508,508,508,508,508,508,508,508,508,508,508,508,508,508,509,509,508,506,502,497,492,492,500,517,541,563,576,572,555,530,509,496,494,497,503,506,507,507,507,507,507,507,507,507,508,508,508,508,509,509,509,509,509,509,509,510,510,510,510,511,511,511,511,511,512,512,512,513,513,513,514,514,515,515,516,516,517,517,518,518,519,519,519,520,520,519,519,519,519,518,517,517,516,515,514,512,512,511,510,509,508,508,507,507,506,506,506,506,506,506,506,506,506,506,506,506,506,507,507,507,507,507,507,507,507,507,507,507,507,507,508,508,508,508,508,508,508,508,508,507,507,507,506,506,507,508,508,509,510,510,510,511,511,511,511,510,509,508,508,508,508,508,508,508,508,508,508,508,508,508,508,508,508,508,508,509,508,507,504,499,493,490,494,509,532,558,576,579,565,539,512,494,488,491,497,503,506,507,507,507,507,508,508,508,508,508,508,508,509,509,509,509,509,509,510,510,511,511,511,511,511,511,512,512,512,513,513,513,513,514,514,515,515,516,517,517,517,518,518,519,520,520,520,521,521,521,521,521,520,519,518,518,517,516,515,513,512,511,510,509,509,508,508,507,507,507,506,506,506,506,506,505,505,506,506,506,506,506,506,506,506,506,506,507,507,507,507,507,508,508,508,508,508,508,508,508,508,508,508,508,508,508,508,507,507,507,506,506,506,507,507,508,509,509,509,510,510,510,510,510,509,509,508,507,507,507,507,507,507,507,507,507,507,507,507,507,507,508,508,508,508,507,506,502,497,494,495,505,524,548,568,574,564,540,513,492,482,483,490,498,503,506,507,507,507,507,508,508,508,508,508,509,509,509,509,509,509,510,510,510,510,511,511,511,511,511,512,512,512,512,513,513,513,514,514,515,515,516,516,517,517,518,518,519,520,520,520,521,521,521,521,521,520,520,519,518,517,516,515,514,513,512,511,510,510,509,508,508,508,507,507,507,507,507,507,507,507,507,507,507,507,507,507,507,507,507,507,507,508,508,508,508,508,508,508,508,509,509,509,509,509,509,509,509,509,509,509,509,509,509,509,509,509,509,509,509,508,508,508,508,507,507,507,508,508,509,510,510,511,511,512,512,512,512,511,510,510,509,509,509,509,509,509,509,509,509,509,509,509,509,509,509,509,510,510,509,507,503,498,494,495,503,520,543,564,575,569,550,526,506,495,494,498,504,507,508,508,508,508,509,509,509,509,509,509,510,510,510,510,510,510,510,511,511,511,511,511,512,512,512,512,512,512,513,513,513,514,514,514,515,515,516,516,517,517,518,518,519,519,520,520,520,521,521,521,521,521,520,520,519,518,517,516,515,514,513,512,512,511,510,509,509,508,508,508,508,507,507,507,507,507,507,507,507,507,507,508,508,508,508,507,508,508,508,508,508,508,508,508,508,508,508,508,508,508,508,509,509,509,509,509,509,509,509,509,509,509,509,509,509,509,509,509,509,509,508,508,508,508,507,507,508,508,509,510,510,511,511,512,512,512,512,512,511,510,510,509,509,509,509,510,509,509,509,509,509,509,509,509,509,509,510,510,510,508,505,500,495,494,499,514,536,559,573,573,558,534,512,498,493,496,502,506,508,508,508,508,508,509,509,509,509,509,509,509,510,510,510,510,510,510,511,511,511,511,511,511,512,512,512,512,512,513,513,513,514,514,514,515,515,516,516,517,517,518,518,519,519,520,520,520,520,521,521,520,520,520,519,518,518,517,516,515,514,513,512,511,510,509,509,508,508,508,508,507,507,507,507,507,507,507,507,507,507,507,507,507,507,507,507,508,508,508,508,508,508,508,508,508,508,508,508,508,509,509,509,509,509,509,508,508,508,509,509,509,509,509,509,508,508,508,509,509,509,509,509,509,509,508,508,508,508,508,507,507,508,508,509,510,510,511,511,512,512,512,512,512,511,510,510,509,509,509,509,509,509,509,509,509,509,509,509,509,509,510,510,510,510,509,506,502,497,494,497,509,529,552,570,575,564,541,517,500,493,494,500,505,508,509,509,508,508,509,509,509,509,509,509,509,509,510,510,510,510,510,511,511,511,511,511,512,512,512,512,512,513,513,513,513,514,514,514,515,515,516,516,517,517,518,518,519,519,520,520,520,521,521,521,521,521,520,520,519,518,518,517,516,515,514,513,512,511,510,510,509,509,508,508,508,508,508,508,508,508,508,508,508,508,508,508,508,508,508,508,508,509,509,509,509,509,509,509,509,509,509,509,509,509,509,509,509,509,509,509,509,509,509,509,509,509,509,510,510,510,510,510,509,509,509,509,509,509,509,509,509,509,509,508,508,508,508,509,509,510,511,511,512,512,513,513,513,512,511,511,510,510,510,509,509,509,509,509,509,509,509,509,509,509,509,509,510,510,510,509,506,501,496,494,496,508,529,552,570,574,563,541,516,498,491,492,498,504,507,508,508,508,508,509,509,509,509,509,509,509,509,510,510,510,510,510,510,510,511,511,511,512,512,512,512,512,513,513,513,513,514,514,514,515,515,516,516,517,517,518,518,519,519,520,520,520,520,521,521,521,521,520,520,519,519,518,517,516,514,513,512,511,511,510,509,508,508,507,507,507,507,507,506,506,506,506,506,507,507,507,507,506,506,506,507,507,507,508,508,508,508,508,508,508,508,507,507,507,508,508,508,508,508,508,508,508,508,508,508,508,508,508,507,507,507,507,507,507,507,507,507,506,506,506,507,508,509,509,509,510,510,511,511,511,510,509,508,508,508,508,508,508,508,508,508,507,507,507,508,508,508,508,508,508,508,508,506,503,498,493,493,501,519,542,563,573,566,546,520,497,485,483,488,496,502,505,507,507,507,507,507,508,508,508,508,508,508,509,509,509,509,510,510,510,510,510,511,511,511,511,511,511,512,512,512,513,513,513,514,514,514,515,516,516,517,517,518,518,519,519,520,520,520,520,520,520,520,520,520,519,518,517,516,515,514,513,512,511,510,509,508,507,507,507,507,507,507,506,506,506,506,506,506,506,506,506,506,506,506,506,506,507,507,507,507,507,507,507,507,507,507,507,507,508,508,508,509,509,508,508,508,507,507,507,507,507,507,508,507,507,507,507,507,507,507,507,506,506,506,506,507,508,509,509,510,510,511,511,511,511,510,509,509,508,508,508,508,508,508,508,508,508,508,508,508,508,508,508,508,509,508,508,505,501,496,492,493,502,521,545,566,576,569,549,524,505,494,494,498,503,506,508,508,508,508,508,508,508,508,508,508,508,509,509,509,509,509,509,509,510,510,510,510,510,511,511,512,512,512,512,512,513,513,514,514,514,514,515,515,516,516,517,517,518,518,519,519,520,520,520,520,520,520,520,520,519,518,517,516,515,513,512,511,510,510,509,509,508,508,508,507,507,507,507,507,507,507,507,507,507,507,507,507,507,507,507,507,507,507,507,507,507,508,508,508,508,509,510,510,511,510,509,508,508,507,508,508,508,508,508,508,507,508,508,508,508,507,507,507,508,508,509,509,510,510,511,512,512,512,511,511,510,509,509,508,508,508,508,508,508,509,509,509,509,509,509,509,509,509,509,509,508,505,500,494,492,496,510,532,556,573,576,564,541,518,502,496,498,503,507,508,508,508,508,508,508,509,509,509,509,509,509,509,509,510,510,510,511,511,510,510,510,511,511,512,512,512,512,512,512,512,512,513,513,514,514,515,515,516,517,517,518,519,519,520,520,520,520,520,520,520,520,520,519,519,518,517,517,516,515,513,512,512,511,510,509,508,508,507,507,507,507,507,507,507,507,507,507,507,507,507,507,507,507,507,507,507,507,507,508,508,508,508,508,508,508,508,508,508,508,508,508,508,509,509,509,508,507,507,506,506,507,507,507,508,509,509,509,509,510,510,510,510,510,509,508,507,507,507,507,507,507,507,507,507,507,507,507,507,507,507,507,507,507,507,505,502,497,493,492,500,517,541,562,572,565,544,518,496,484,483,489,496,502,505,506,507,507,507,507,507,508,508,508,508,508,509,509,509,509,509,510,510,510,510,511,511,511,512,512,512,512,512,512,513,513,514,514,515,516,516,516,517,517,518,519,519,520,520,520,520,521,521,521,520,520,520,519,519,518,517,517,516,515,514,513,512,511,510,509,509,508,508,508,508,507,507,507,507,507,507,507,507,507,507,507,507,507,508,508,508,509,509,509,509,509,509,509,509,509,509,509,509,509,509,509,508,508,508,508,509,509,509,509,508,507,507,507,508,508,509,510,510,511,511,512,512,512,511,510,510,509,508,508,508,509,509,509,509,509,509,509,509,509,509,509,509,509,509,509,508,506,501,496,492,493,504,524,548,569,577,569,549,525,506,497,497,501,506,508,508,508,508,508,508,508,508,508,508,509,509,509,509,509,509,509,510,510,510,510,510,510,510,511,511,511,511,511,512,512,512,513,513,514,514,515,515,516,516,517,517,518,518,518,518,519,519,520,520,519,519,519,519,518,517,517,516,515,513,512,512,511,510,509,509,508,508,507,507,507,507,507,507,507,507,507,507,507,506,507,507,507,507,507,507,507,507,507,507,507,508,508,508,508,508,508,508,508,508,508,508,508,508,508,508,508,508,508,508,507,507,507,506,506,506,507,507,508,509,510,510,511,511,512,512,511,510,509,509,508,508,508,508,508,508,508,508,508,508,508,508,508,508,508,508,508,509,508,507,503,498,492,490,496,511,534,558,574,576,562,540,517,503,498,500,504,507,508,508,507,507,507,507,507,507,507,507,508,508,508,508,508,508,508,508,509,509,509,509,509,510,510,510,510,511,511,511,512,512,512,513,513,513,514,514,515,515,516,516,517,517,518,518,519,519,519,519,519,518,518,518,517,516,515,514,513,512,512,511,510,509,508,508,507,507,507,506,506,506,506,506,506,506,506,506,506,506,506,506,506,506,506,506,506,506,506,506,507,507,507,507,507,507,507,507,507,507,507,507,507,507,507,508,508,508,508,508,508,508,508,507,507,507,507,507,506,506,506,507,508,509,509,510,510,510,511,511,512,511,510,510,509,508,508,508,508,508,508,508,508,508,508,508,508,508,508,508,508,509,509,508,507,504,498,493,490,494,508,531,557,575,579,566,543,518,500,493,495,500,504,506,507,507,507,507,507,507,507,507,507,507,507,507,507,508,508,508,509,509,509,510,510,510,510,510,510,510,511,511,512,512,512,512,512,513,513,514,515,515,516,516,517,517,518,519,519,519,519,520,520,520,520,520,519,518,517,516,515,514,513,512,512,511,510,509,508,508,507,507,507,506,506,506,505,505,505,505,505,505,505,506,506,506,506,506,506,506,506,506,507,507,507,507,508,508,508,508,508,508,508,508,508,508,508,508,508,508,508,508,508,508,508,508,508,507,507,507,507,506,506,506,507,508,508,509,509,510,510,510,511,511,510,510,509,508,508,508,508,508,508,508,508,508,508,508,508,508,508,508,508,508,508,508,508,506,503,498,493,493,502,521,545,567,577,569,547,519,496,484,484,490,498,503,506,507,507,507,507,507,508,508,508,508,508,508,509,509,509,509,509,509,510,510,510,510,510,510,511,511,511,512,512,512,512,513,513,514,514,515,515,516,516,517,517,518,519,519,520,520,520,520,520,520,520,520,519,519,518,517,516,515,514,513,512,511,510,509,509,508,508,507,507,506,506,506,506,505,505,505,505,505,505,505,506,506,506,506,506,506,507,507,507,507,507,508,508,508,508,508,508,508,508,508,508,508,508,508,508,508,508,508,508,508,508,508,508,508,508,508,508,508,508,508,508,508,508,508,508,508,508,508,508,507,507,507,507,508,509,509,510,510,511,511,512,512,512,511,510,510,509,509,509,509,509,509,509,509,509,509,509,509,509,509,509,510,510,510,509,508,505,501,496,494,498,511,532,556,573,577,565,543,518,501,494,496,501,505,507,508,508,508,509,509,509,509,509,509,509,510,510,510,510,510,511,511,511,511,511,511,512,512,512,512,512,512,513,513,513,513,514,514,514,515,515,516,516,517,517,518,518,519,519,520,520,520,521,521,521,521,521,520,520,519,518,517,516,515,514,513,512,511,510,510,509,509,508,508,507,507,507,507,507,507,507,507,507,507,507,507,507,507,507,507,507,507,508,508,508,508,508,508,508,508,508,509,509,509,509,509,509,509,509,509,509,509,509,509,509,509,509,509,509,509,509,509,509,509,509,509,509,509,509,509,509,508,508,508,508,508,508,507,507,508,508,509,510,510,511,511,512,512,512,512,512,511,510,510,509,509,509,510,510,509,509,509,509,509,509,509,509,509,509,510,510,510,509,507,502,498,494,496,506,525,549,569,578,571,551,526,507,497,496,501,505,508,508,508,508,509,509,509,509,509,509,509,510,510,510,510,510,510,511,511,511,511,511,511,512,512,512,512,512,512,513,513,513,514,514,514,515,515,516,516,517,517,518,519,519,520,520,521,521,521,521,521,521,521,521,520,520,519,518,517,516,515,514,513,512,511,511,510,509,509,508,508,508,508,508,508,508,508,508,508,508,508,508,508,508,508,508,508,508,508,508,508,508,508,508,508,508,509,509,509,509,509,509,509,509,509,509,510,510,510,510,510,510,510,510,510,510,510,510,510,510,510,510,510,510,510,510,510,510,510,509,509,509,508,508,509,509,510,511,512,512,512,512,513,513,513,512,512,511,510,510,510,510,510,510,510,510,510,510,510,510,510,510,510,510,510,511,511,510,508,504,500,496,497,505,522,545,566,576,571,552,528,507,495,493,498,503,507,509,509,509,510,510,510,510,510,510,510,510,510,511,511,511,511,511,511,512,512,512,513,513,513,513,513,513,514,514,515,515,515,515,516,516,517,517,517,517,517,518,519,520,521,521,522,522,523,523,523,523,522,522,522,521,521,520,519,519,518,517,516,515,514,513,512,512,511,511,510,510,510,509,509,509,509,509,509,509,509,510,510,510,510,510,510,510,510,510,510,510,510,510,511,511,511,511,510,510,510,510,510,511,511,510,510,510,510,510,510,510,511,511,511,510,510,510,510,510,510,510,510,510,510,509,509,508,508,509,510,512,513,513,513,513,513,512,512,511,511,510,510,511,511,511,511,511,510,511,511,512,512,512,511,511,510,510,511,511,512,513,512,509,503,498,497,503,518,540,562,574,571,553,528,505,490,485,488,495,501,505,508,509,509,510,511,512,513,513,512,512,511,511,511,510,510,511,511,511,512,512,512,512,512,511,512,512,512,512,512,512,512,513,513,514,515,515,515,515,515,515,516,517,517,518,518,519,520,520,520,519,519,518,518,517,517,516,515,514,513,512,511,510,509,508,507,507,507,507,507,507,507,506,506,506,505,505,505,505,505,505,505,505,506,506,506,506,506,507,508,508,508,507,506,506,506,507,507,507,508,508,509,509,508,507,506,506,507,507,507,507,506,506,506,505,505,505,505,506,506,507,507,507,507,508,509,510,510,509,508,507,506,507,507,508,508,508,508,507,507,507,508,508,507,507,506,506,507,508,509,508,506,502,498,496,499,512,535,559,575,576,559,531,501,479,470,471,479,488,496,502,506,509,510,511,511,511,510,509,508,509,510,512,513,513,513,512,511,511,512,513,514,514,514,513,513,514,515,516,517,517,516,516,516,517,518,519,519,519,519,519,520,521,522,522,522,522,522,522,522,522,522,522,521,521,521,521,519,518,515,514,512,512,511,511,511,511,510,509,508,507,507,508,508,508,509,509,509,509,508,507,507,507,508,509,510,509,509,508,508,509,509,509,509,509,508,508,508,508,508,509,509,509,509,509,508,508,508,508,508,508,509,509,508,508,507,507,508,508,508,509,509,510,511,512,512,512,511,509,509,508,508,509,509,509,509,508,508,507,507,508,508,509,509,509,508,508,508,508,508,506,502,497,495,499,513,535,560,577,578,563,537,510,491,483,484,491,497,502,504,505,506,507,507,508,508,508,508,508,508,508,509,509,510,510,510,510,510,510,510,510,511,511,511,512,512,512,512,512,512,512,513,513,513,514,514,514,515,515,516,517,517,517,518,518,518,518,518,518,518,517,517,516,516,515,515,514,513,512,511,510,509,508,508,507,507,506,506,506,506,506,506,506,506,506,505,505,505,505,505,505,505,505,506,506,506,507,507,507,507,507,507,507,507,507,508,508,508,508,508,507,507,508,508,508,507,507,507,507,507,508,509,509,510,510,511,511,512,512,511,511,510,509,509,509,509,510,510,510,510,509,509,509,509,509,509,508,508,508,509,509,509,507,504,499,494,493,500,516,540,564,581,581,565,540,515,498,492,494,499,504,506,507,507,507,507,507,507,508,508,508,508,508,509,509,509,509,509,509,510,510,510,510,510,510,510,510,511,511,512,512,513,513,513,513,513,514,514,515,516,517,517,518,518,518,518,519,519,520,520,520,520,519,519,518,518,517,516,516,515,513,512,511,510,509,508,507,507,506,506,506,506,506,506,506,506,506,506,506,506,505,505,505,505,505,506,506,506,506,506,506,507,507,507,507,507,507,507,507,507,507,507,506,506,506,506,507,508,508,509,509,509,510,511,511,511,511,510,509,509,508,508,507,507,507,507,507,508,508,507,507,507,507,507,508,508,508,508,508,507,505,501,496,492,492,501,519,544,567,578,573,554,529,507,494,491,495,500,503,505,505,505,506,506,507,507,507,507,507,506,506,507,507,508,508,508,508,508,508,509,509,509,509,509,509,510,510,510,511,511,512,512,512,512,513,513,514,515,515,516,516,517,518,518,518,518,518,518,518,518,518,518,517,516,515,514,513,512,512,511,510,509,509,508,507,507,506,506,506,506,506,506,506,506,506,506,506,506,506,506,506,506,507,507,507,507,507,507,506,506,507,507,507,507,507,507,507,506,506,506,507,507,508,508,509,509,510,510,511,511,511,511,510,509,509,509,508,508,507,507,507,507,507,507,507,507,507,507,507,508,508,508,508,508,507,504,499,494,492,497,512,535,559,576,578,564,540,515,498,491,493,499,504,506,506,506,506,507,507,508,508,508,508,507,507,508,508,508,509,509,509,509,509,510,510,510,510,510,510,510,511,512,512,512,512,512,513,513,514,514,514,515,515,516,517,517,517,518,518,519,519,519,519,519,519,518,518,517,516,516,515,514,513,512,511,510,509,509,508,508,508,507,507,507,506,506,506,506,507,507,507,507,506,506,506,506,507,507,507,507,507,507,507,507,507,507,507,507,508,508,507,507,507,507,508,508,509,510,510,511,512,512,512,512,512,512,511,510,510,509,509,509,509,509,509,509,509,509,509,509,509,509,509,510,510,510,510,508,505,500,495,493,499,515,538,562,578,578,563,539,515,500,494,496,501,505,507,508,508,508,508,508,508,508,509,509,509,510,510,510,510,510,510,510,510,510,510,511,512,512,512,512,512,512,512,513,513,514,514,515,515,516,516,516,516,517,517,518,518,519,519,520,520,520,520,520,520,520,520,520,519,519,518,517,515,514,513,513,512,512,511,511,510,510,509,509,509,509,509,509,509,509,509,510,510,510,510,510,510,510,510,510,510,510,510,510,510,510,510,510,510,510,510,511,511,511,510,510,509,510,510,511,512,512,513,513,513,514,514,514,514,513,513,513,512,511,511,510,510,510,510,511,511,511,511,510,510,510,511,512,512,511,509,504,499,494,494,501,517,541,564,579,579,563,539,516,502,497,499,504,507,509,509,509,509,509,509,509,509,509,509,510,510,510,510,511,511,511,511,511,512,512,512,512,512,512,512,512,513,513,513,514,514,514,515,515,515,515,516,517,518,519,519,519,518,518,519,519,520,520,520,520,520,519,519,518,518,517,516,515,514,513,512,512,511,511,510,510,509,508,508,508,508,508,508,508,508,508,509,509,509,509,509,509,510,510,509,509,508,508,508,508,508,507,507,507,507,508,508,508,508,508,508,508,508,508,508,508,509,510,511,511,512,512,512,512,512,512,511,510,509,509,509,509,509,510,510,509,509,509,508,508,509,509,509,510,510,510,510,508,505,500,495,493,498,512,533,555,572,575,563,542,520,505,498,499,503,507,508,509,508,508,508,508,509,509,509,509,509,509,509,509,509,509,512,514,516,516,515,512,510,509,508,508,507,506,506,507,510,512,513,513,511,510,509,510,512,514,516,517,518,518,519,519,519,519,519,519,519,519,519,520,520,520,519,517,515,514,513,512,512,512,513,516,518,518,515,509,504,501,502,505,507,509,508,508,508,508,509,510,510,510,510,509,510,510,510,510,510,510,510,511,511,512,512,512,511,510,509,509,510,511,513,514,513,511,509,507,507,509,511,512,512,511,509,509,510,511,511,512,512,511,511,510,509,509,510,510,511,512,512,512,512,511,510,508,505,501,497,497,505,522,545,565,574,568,549,527,509,500,497,497,499,500,502,505,509,511,511,512,511,511,509,508,507,508,509,510,511,511,511,511,512,512,513,513,512,512,512,512,512,512,512,513,514,514,516,518,518,518,515,512,510,510,511,513,515,515,515,516,516,517,517,517,517,518,517,517,517,517,516,516,515,514,514,513,513,512,512,511,510,510,511,511,511,511,510,509,508,508,510,512,513,512,509,506,505,507,509,510,509,506,504,504,506,507,508,508,509,509,510,510,510,510,510,510,509,509,508,509,510,511,512,513,513,512,512,512,513,514,514,513,512,510,509,509,510,511,511,511,510,509,509,510,511,512,511,509,507,506,506,506,506,504,500,497,496,501,513,532,551,563,562,549,527,507,493,487,489,494,499,503,506,507,508,508,508,508,508,508,508,508,508,508,508,508,508,508,509,509,509,509,509,509,510,510,511,511,511,511,511,511,511,511,511,511,512,514,515,516,516,516,515,513,512,511,510,510,512,513,515,515,514,514,514,514,514,514,514,514,513,512,512,511,510,510,509,508,508,508,508,508,509,509,509,508,508,508,508,508,508,509,509,509,508,508,508,508,508,508,508,508,508,508,508,508,508,509,510,510,510,509,508,507,507,508,510,510,510,509,507,507,508,509,510,509,508,507,506,506,506,507,507,508,507,507,507,507,507,507,507,507,508,508,508,508,508,507,505,502,498,497,502,516,536,555,565,562,546,523,501,486,480,482,489,496,502,505,507,508,508,509,509,509,508,507,507,508,509,510,509,509,508,508,508,508,508,508,508,509,509,510,510,511,511,511,511,511,511,512,512,512,512,512,512,513,513,514,515,515,515,515,516,516,515,515,515,515,515,515,515,514,514,514,514,514,514,513,512,512,511,510,511,511,512,511,510,509,508,508,507,507,506,506,506,507,508,508,508,508,508,508,508,508,508,508,508,508,508,508,508,507,507,507,507,508,509,510,511,511,511,511,511,512,512,512,511,510,509,509,509,509,509,509,509,508,508,508,507,507,507,507,507,507,508,508,508,507,506,503,499,496,499,509,527,549,566,570,559,536,511,491,481,481,487,494,500,504,506,507,507,508,508,508,508,508,508,508,509,509,509,510,510,510,509,509,509,510,511,511,512,512,512,512,512,512,512,513,513,513,513,513,514,514,515,515,516,516,516,516,517,517,517,517,517,517,517,517,517,516,516,515,515,514,514,514,514,513,512,511,510,509,508,508,508,508,507,507,507,507,507,507,507,507,507,507,507,507,507,507,507,508,508,508,508,508,508,507,507,507,507,507,507,506,507,507,508,509,509,510,510,510,510,510,510,510,509,509,508,508,507,507,507,507,507,507,507,507,508,508,507,507,507,507,508,508,507,506,504,499,495,492,497,511,534,559,576,578,562,536,510,492,486,488,495,501,504,506,506,507,507,507,507,507,507,508,508,508,508,508,509,509,509,510,510,510,510,510,510,510,510,510,511,511,512,512,513,512,512,512,513,513,514,515,515,516,516,517,517,517,518,518,519,519,519,518,517,516,516,515,515,515,515,514,513,512,511,510,509,509,508,508,507,507,507,507,507,507,506,506,506,506,506,506,506,506,506,506,506,507,507,507,507,507,507,507,507,507,507,507,507,506,507,507,508,508,509,509,510,510,511,511,511,511,511,510,509,508,508,507,507,508,508,508,509,509,509,508,508,508,508,509,509,509,509,508,505,501,496,492,494,505,525,550,572,580,572,550,524,504,494,493,497,503,506,507,507,507,507,508,508,508,508,508,508,508,509,509,509,509,510,510,510,510,510,510,510,510,511,511,512,512,512,512,512,512,513,513,514,514,515,515,516,516,517,518,518,518,518,518,519,519,519,520,520,519,519,518,517,516,515,514,512,512,511,510,510,509,509,508,507,507,507,506,506,506,506,506,506,506,506,506,506,506,506,507,507,506,506,506,507,507,507,507,507,507,506,506,506,506,507,508,508,509,509,509,510,510,511,511,510,510,509,509,508,508,507,507,508,508,508,508,508,507,507,507,507,507,507,508,508,508,506,503,498,492,491,497,513,538,564,580,581,564,538,513,497,492,495,500,504,506,506,506,506,506,507,507,507,507,507,508,508,508,508,508,508,509,509,509,509,510,510,510,510,510,510,511,511,511,511,512,512,513,513,513,514,514,515,515,516,516,517,517,518,518,518,518,518,519,518,518,518,517,516,515,514,513,512,512,511,510,509,508,507,507,506,506,506,506,505,505,505,505,504,504,504,504,504,504,504,504,505,505,505,506,506,506,506,506,506,506,506,506,506,506,506,506,506,507,507,508,508,509,509,509,509,510,510,510,510,509,508,507,507,507,507,507,508,508,508,508,507,507,507,507,507,507,508,508,507,505,501,496,493,494,505,525,550,572,580,571,548,520,498,487,487,492,498,502,504,505,506,507,508,509,509,509,509,509,509,508,508,508,509,509,509,510,510,510,510,510,510,511,511,511,511,511,512,512,512,513,513,513,513,514,514,515,516,516,517,518,519,519,519,519,519,518,518,517,517,517,516,515,515,514,513,512,512,512,511,510,508,507,506,506,506,506,506,506,506,506,505,505,505,505,506,506,506,506,506,505,505,505,505,505,506,506,506,506,507,507,507,506,506,506,507,507,507,507,507,506,505,505,505,505,506,506,507,507,507,508,508,509,510,510,510,509,508,507,507,507,507,507,507,507,507,507,507,507,507,507,507,507,508,508,508,508,505,501,495,490,490,500,519,545,569,582,578,560,536,516,504,500,502,505,506,506,506,506,506,506,506,506,506,506,507,507,507,507,507,508,508,508,508,508,508,509,509,509,509,510,510,510,510,511,511,512,512,512,512,512,513,514,514,515,515,516,516,517,517,518,518,518,518,518,518,518,517,517,516,515,514,513,512,512,510,509,509,508,507,507,506,506,506,505,505,505,505,505,505,505,505,505,505,505,505,505,505,505,505,505,505,506,506,506,506,506,506,506,506,506,506,507,507,507,507,507,507,507,507,507,507,506,506,506,505,505,506,506,507,507,508,508,509,509,510,510,510,509,509,508,508,507,507,507,507,507,507,508,508,508,508,508,508,508,508,508,508,507,505,501,495,489,488,496,514,540,566,583,582,567,543,520,506,501,502,504,506,506,505,505,506,506,506,506,506,506,506,507,507,507,507,507,507,508,508,508,508,509,509,509,509,509,509,510,510,510,511,511,511,512,512,512,513,513,514,515,515,516,517,517,517,518,518,518,518,518,518,518,517,517,516,515,514,514,512,512,511,510,509,508,507,507,507,506,506,506,506,505,505,505,505,505,505,505,505,505,505,505,505,505,505,505,506,506,506,506,506,506,507,507,507,507,507,507,507,507,507,507,507,508,508,508,508,508,508,508,508,508,508,508,507,507,507,507,506,506,506,507,508,508,509,509,509,510,510,511,511,510,510,509,509,508,508,508,508,509,509,509,509,509,509,509,509,509,509,509,509,509,507,503,497,492,489,496,512,538,564,581,583,568,544,521,505,499,500,503,506,507,507,507,507,508,508,508,508,508,508,508,508,509,509,509,509,509,509,509,510,510,510,510,510,511,511,511,512,512,512,512,513,513,513,514,514,515,515,516,516,517,518,518,519,519,519,520,520,520,520,519,519,519,518,517,516,515,514,513,512,511,510,510,509,508,508,507,507,507,506,506,506,506,506,506,506,506,506,506,506,506,506,506,506,506,507,507,507,507,507,507,508,508,508,508,508,508,508,508,508,509,509,509,509,509,509,509,509,509,509,509,509,509,509,509,509,509,509,509,509,509,509,509,509,509,509,509,508,508,508,508,508,508,508,508,508,509,509,510,510,511,511,512,512,512,512,511,511,510,510,510,510,510,510,510,510,510,510,510,510,510,510,510,510,510,510,508,505,499,494,491,496,511,536,562,581,585,573,550,526,510,503,502,505,507,508,508,508,508,508,509,509,509,509,509,509,509,509,510,510,510,510,510,510,510,511,511,511,511,511,511,512,512,512,512,512,513,513,514,514,515,515,516,516,517,517,518,518,519,519,520,520,520,520,520,520,520,520,519,518,518,517,516,515,514,513,512,511,510,509,508,508,508,507,507,507,507,506,506,506,506,506,506,506,506,506,506,506,507,507,507,507,507,507,507,507,508,508,508,508,508,508,508,508,508,508,508,508,508,508,508,509,509,509,509,509,508,508,508,508,509,509,509,509,509,508,508,508,508,509,509,509,509,509,509,508,508,508,508,508,508,507,507,507,508,508,509,509,510,510,511,512,512,512,512,511,510,509,509,509,509,509,509,510,510,510,510,510,510,510,510,510,510,510,509,508,505,500,494,491,495,508,531,557,577,584,574,553,531,513,504,502,504,505,506,507,508,508,508,509,509,509,509,508,508,508,509,509,509,509,509,509,509,509,509,509,510,510,510,510,510,511,511,511,511,511,511,511,512,512,513,513,514,514,515,515,516,516,516,517,517,517,518,518,518,518,517,517,516,515,515,514,513,512,510,509,508,507,507,506,506,505,505,504,504,504,504,504,504,503,503,503,503,503,503,503,504,504,504,504,504,504,504,504,505,506,506,506,505,505,505,505,506,506,506,506,506,505,505,505,505,506,506,506,506,506,506,506,506,506,506,506,506,506,506,506,506,506,506,506,506,506,506,506,506,506,506,505,505,505,505,506,507,507,507,507,508,508,509,509,509,509,508,508,507,507,507,507,507,507,507,507,507,507,507,507,507,507,507,507,507,507,507,504,499,494,492,497,512,535,559,573,570,552,525,499,483,479,484,492,499,503,505,507,507,508,508,508,508,508,508,509,509,509,509,509,510,510,510,510,510,510,510,511,511,512,512,512,512,512,513,513,513,513,514,514,515,516,516,517,518,518,519,519,520,520,520,521,521,522,522,522,522,521,521,520,519,518,517,516,515,513,512,511,511,510,509,508,508,508,507,507,507,506,506,506,506,506,506,506,506,506,507,507,507,507,507,507,507,508,508,508,508,508,508,508,508,508,508,508,509,509,509,509,509,508,508,508,508,508,508,508,508,508,508,508,508,508,508,508,508,508,508,508,508,508,508,508,508,508,508,508,508,507,507,507,507,507,508,509,509,510,510,510,511,511,511,511,511,510,509,509,509,509,509,509,509,509,509,509,509,509,509,509,509,509,509,510,509,508,505,500,495,494,500,516,539,563,576,575,557,531,507,491,487,490,497,503,506,507,507,508,508,508,509,509,509,509,509,509,509,509,510,510,510,510,510,510,510,511,511,511,511,512,512,512,512,512,512,513,513,513,514,514,515,515,516,516,517,518,518,519,519,519,520,520,520,520,520,520,519,519,518,517,516,516,514,513,512,512,511,510,509,508,508,507,507,507,507,506,506,506,506,506,505,505,505,505,505,506,506,506,506,507,507,507,507,507,507,508,508,508,508,508,508,508,508,508,508,508,508,508,508,508,508,508,508,508,508,508,508,508,508,508,508,508,508,508,508,508,508,508,508,508,508,508,507,507,506,506,507,508,509,509,510,510,510,511,511,511,511,510,510,509,509,508,508,508,508,508,508,508,508,508,508,508,508,508,508,508,509,508,506,503,498,494,493,500,517,541,564,577,574,555,529,505,490,487,491,498,503,505,506,506,507,507,508,508,508,508,508,508,508,509,509,509,509,509,510,510,510,511,511,511,511,511,511,511,512,512,512,512,513,513,514,514,514,515,515,516,516,517,518,518,519,519,519,520,520,520,520,520,520,519,519,518,518,517,515,514,513,512,511,511,510,509,508,508,507,507,507,506,506,506,506,506,506,506,506,506,506,506,506,506,506,506,506,506,507,507,507,507,508,508,508,508,508,508,508,508,508,508,508,508,508,508,508,508,508,509,509,508,508,508,508,508,508,508,508,508,508,508,507,507,507,507,507,508,508,509,510,510,511,511,512,512,512,511,510,510,509,509,509,509,509,509,509,509,508,508,508,509,509,509,509,509,509,509,508,506,502,497,493,495,506,526,550,570,577,568,545,519,499,489,489,495,501,505,506,507,507,507,508,508,508,508,508,509,509,509,509,509,509,509,510,510,510,510,510,510,510,511,511,511,512,512,512,512,512,512,513,513,514,514,515,515,516,516,517,517,518,518,518,519,519,519,520,520,520,519,519,518,517,516,515,514,513,512,511,510,509,509,508,507,507,507,506,506,506,506,505,505,505,505,505,504,505,505,505,506,506,506,506,506,506,506,506,506,507,507,507,507,507,507,507,507,507,507,507,507,507,507,507,507,507,507,507,507,507,508,508,508,508,508,507,507,507,507,507,507,507,506,506,506,506,506,507,508,508,509,510,510,511,511,511,511,510,510,509,508,508,508,508,508,508,508,508,508,508,508,508,508,508,508,508,509,509,508,505,501,496,493,495,507,527,551,570,577,566,544,518,498,489,489,495,501,505,506,507,507,507,507,508,508,508,508,508,508,508,508,509,509,509,510,510,510,510,510,510,510,511,511,511,511,512,512,512,512,512,513,513,514,514,515,516,516,517,517,517,518,518,519,519,519,519,519,519,519,519,519,518,518,517,516,515,514,513,512,511,510,509,509,508,508,507,507,507,507,506,506,506,506,506,506,506,506,506,506,506,506,506,506,507,507,507,507,507,508,507,507,508,508,508,508,508,508,508,508,509,509,508,508,508,508,508,508,508,508,508,508,508,508,508,508,508,508,508,508,508,508,508,507,507,507,507,506,506,506,507,508,509,509,510,510,511,511,512,511,511,510,509,508,508,508,508,508,508,508,508,508,508,508,508,508,508,508,508,508,509,508,507,503,498,494,493,500,517,540,563,576,573,554,527,504,490,487,491,498,503,505,506,507,507,508,508,508,508,508,508,508,509,509,509,510,510,510,510,510,510,510,510,510,511,511,511,511,512,512,512,513,513,513,513,514,514,514,515,516,516,517,518,519,519,519,519,519,520,520,520,520,520,520,519,519,518,517,517,516,515,514,512,512,511,510,509,509,508,507,507,507,507,507,506,506,506,506,506,506,506,506,506,506,507,507,507,507,507,508,508,508,508,508,508,508,508,508,508,509,509,508,508,508,508,508,508,508,508,508,508,508,508,508,508,508,508,508,508,507,507,507,507,507,507,507,508,509,509,509,509,510,510,511,511,511,510,509,509,508,508,508,509,509,509,509,509,508,508,508,509,509,509,509,509,509,509,508,505,500,495,493,497,511,533,557,573,573,557,531,505,488,483,487,494,501,505,507,507,508,508,509,509,508,508,508,509,509,509,509,510,510,510,510,510,510,510,510,511,511,511,511,511,511,512,512,512,513,513,513,514,514,515,515,515,516,516,517,518,518,519,519,520,520,520,520,520,520,519,519,518,518,517,516,515,514,513,512,511,510,509,509,508,508,507,507,506,506,506,506,506,506,506,506,506,506,506,506,506,506,507,507,507,507,507,508,508,508,508,508,508,508,508,508,508,508,508,508,508,508,508,508,508,508,508,508,508,508,508,508,508,508,508,507,507,507,507,507,507,507,507,507,507,508,508,509,509,510,510,511,511,511,511,510,510,509,509,508,508,508,508,508,508,508,508,508,508,508,508,508,508,508,508,508,508,506,502,497,494,494,503,521,545,566,576,569,549,524,503,492,491,496,502,505,507,507,507,508,508,508,508,508,508,509,509,509,509,509,509,509,510,510,510,510,510,510,511,511,511,511,511,512,512,512,512,512,513,513,514,514,515,515,515,516,516,517,518,518,518,519,519,519,519,519,519,519,518,518,517,517,516,515,514,513,512,511,510,510,509,509,508,508,507,507,507,507,507,507,507,506,506,506,507,507,507,507,507,507,507,507,507,507,507,508,508,508,508,508,508,508,508,508,508,508,508,508,508,508,508,508,508,508,508,508,508,508,508,508,508,508,508,507,507,507,507,507,506,506,507,507,508,509,509,510,510,511,511,511,511,511,510,509,509,508,508,508,508,508,508,508,508,508,508,508,508,508,509,509,509,509,508,507,503,499,494,493,500,516,539,562,575,574,558,533,511,497,493,496,502,506,507,507,507,507,508,508,508,508,508,508,509,509,509,509,509,510,510,510,510,510,510,511,511,511,511,511,512,512,512,512,512,513,513,513,514,514,514,515,515,516,516,517,517,518,518,518,519,519,519,519,519,518,518,518,517,517,516,515,514,513,512,512,511,510,509,509,508,508,508,507,507,507,507,507,507,507,507,507,507,507,507,507,507,507,507,507,508,508,508,508,508,508,508,508,508,508,508,508,508,509,509,509,509,509,509,509,509,509,509,509,509,509,509,509,509,509,509,508,508,508,508,507,507,507,507,507,507,508,509,510,510,510,511,511,511,511,511,510,509,509,508,508,508,508,508,508,508,508,508,508,508,508,508,508,508,508,508,508,507,505,500,495,492,495,506,526,551,570,576,565,542,516,498,490,491,497,503,505,506,507,507,507,507,508,508,508,508,508,508,509,509,509,509,509,509,510,510,510,510,510,511,511,511,511,512,512,512,512,512,513,513,514,514,515,515,516,516,517,517,518,518,519,519,519,520,520,520,520,520,519,519,518,518,517,516,515,514,513,512,511,511,510,509,508,508,507,507,506,506,506,506,506,506,506,506,506,506,506,506,506,507,507,507,507,507,507,508,508,508,508,508,508,508,508,508,508,508,508,508,508,508,508,508,508,508,508,508,508,508,508,508,508,508,508,508,508,507,507,507,507,507,508,509,510,510,510,511,511,512,512,512,511,510,510,509,509,509,509,509,509,509,509,509,509,509,509,509,509,509,510,510,510,509,507,502,497,493,495,506,527,551,571,578,568,546,521,502,494,495,500,505,507,508,508,508,509,509,509,509,509,509,510,510,510,510,511,511,511,511,511,511,511,512,512,512,512,512,512,513,513,513,513,514,514,515,515,515,516,516,517,517,518,519,519,520,520,520,520,521,521,521,520,520,520,519,519,518,517,516,516,515,514,513,512,511,510,510,509,509,508,508,508,508,507,507,507,507,507,507,507,508,508,508,508,508,508,508,508,508,508,509,509,509,509,509,509,509,509,509,510,510,510,510,510,510,509,509,509,509,509,509,509,509,509,509,509,509,509,509,509,509,509,509,509,509,508,508,508,508,508,509,510,510,511,511,512,512,513,513,512,512,511,510,510,510,509,509,509,509,509,509,509,509,509,509,509,509,509,510,510,510,509,507,502,497,493,493,503,522,547,568,578,571,551,526,505,495,494,498,503,506,508,508,508,508,509,509,509,509,509,509,509,509,509,510,510,510,510,510,510,511,511,511,511,511,512,512,512,512,512,513,513,513,513,514,514,515,515,516,516,517,517,517,518,518,519,519,519,520,519,519,519,519,518,518,517,517,516,514,513,512,512,511,510,509,509,508,508,507,507,507,506,506,506,506,506,506,506,506,506,506,506,506,506,506,506,507,507,507,507,507,507,507,507,508,508,508,508,508,508,508,508,508,508,508,508,508,508,508,508,508,508,508,508,508,508,508,508,508,508,507,507,507,507,507,507,506,507,507,508,509,509,510,510,511,511,511,511,511,510,510,509,509,508,508,509,509,509,509,509,509,509,509,508,508,508,509,509,509,509,509,507,503,497,493,493,501,519,543,565,575,569,550,525,504,493,492,496,502,506,507,508,508,508,508,508,508,509,509,509,509,509,509,510,510,510,510,510,510,511,511,511,511,511,512,512,512,512,512,513,513,513,514,514,514,515,515,516,516,517,517,517,518,518,519,519,519,519,520,519,519,519,518,518,517,517,516,515,514,513,512,511,511,510,509,508,508,507,507,507,507,506,506,506,506,506,506,506,506,506,506,507,507,507,507,507,507,507,507,508,508,508,508,508,508,508,508,508,508,508,508,508,508,508,508,508,508,508,508,508,508,508,508,508,508,508,508,507,507,507,507,507,507,508,509,509,510,510,511,511,511,511,511,510,509,509,508,508,508,508,508,508,508,508,508,508,508,508,508,508,508,508,509,508,508,505,501,496,492,494,506,526,550,568,574,563,541,516,497,489,490,496,502,505,507,507,507,507,508,508,508,508,508,508,508,508,509,509,509,510,510,510,510,510,510,510,511,511,511,511,512,512,512,512,513,513,513,514,514,515,515,516,516,517,517,518,518,519,519,519,519,519,520,519,519,519,518,518,517,516,515,514,514,513,512,511,510,509,509,508,508,507,507,507,506,506,506,506,506,506,506,506,506,506,507,507,507,507,507,507,507,507,508,508,508,508,509,509,508,508,508,508,508,509,509,509,508,508,508,508,508,508,509,509,509,509,508,508,508,508,508,508,508,508,508,508,508,507,507,507,507,507,508,509,509,510,511,511,511,511,512,511,511,510,509,509,508,508,509,509,509,509,509,509,509,509,509,509,509,509,509,509,509,509,507,504,498,494,492,499,515,538,561,575,572,555,530,507,493,489,493,499,504,506,507,507,507,508,508,508,508,509,509,509,509,509,509,509,509,509,510,510,510,510,510,511,511,511,511,511,511,512,512,512,513,513,513,514,514,514,515,515,516,516,517,517,518,518,518,518,519,519,519,518,518,518,518,517,517,516,515,514,513,512,512,511,510,509,508,508,508,507,507,507,506,506,506,506,506,506,506,506,506,506,506,507,507,507,507,507,507,508,508,508,508,508,508,508,508,508,508,508,508,508,508,508,508,508,508,508,508,508,508,508,508,508,508,508,508,508,508,508,508,508,508,508,508,508,508,508,508,508,507,507,507,506,507,507,508,509,510,510,511,511,511,511,511,511,510,509,509,509,508,508,508,509,509,509,509,509,508,508,508,508,508,509,509,509,509,508,505,501,496,493,495,507,527,551,571,577,566,544,518,498,489,490,495,501,505,506,507,507,507,508,508,508,508,508,509,509,509,509,509,509,509,510,510,510,510,511,511,511,511,511,511,512,512,512,512,512,513,513,513,514,514,515,515,516,516,517,517,518,518,518,519,519,519,519,519,518,518,518,517,517,516,516,515,514,513,512,511,511,510,510,509,508,508,507,507,507,506,506,506,506,506,506,506,506,506,506,506,507,507,507,507,507,508,508,508,508,508,508,508,508,508,508,509,509,509,509,509,509,509,509,509,509,509,509,509,509,509,509,509,509,509,509,509,509,509,509,509,509,509,509,508,508,508,508,508,507,507,508,508,509,510,510,511,511,511,512,512,512,511,510,509,509,509,509,509,509,509,509,509,509,509,509,509,508,508,508,509,509,509,509,508,506,501,496,493,495,506,526,550,570,576,567,544,519,499,490,490,496,501,505,507,507,507,508,508,508,508,508,508,508,509,509,509,509,509,509,510,510,510,510,511,511,511,511,511,511,511,512,512,512,513,513,513,514,514,514,515,515,516,516,517,517,518,518,518,518,519,519,519,519,518,518,518,517,517,516,516,515,514,513,512,512,511,510,510,509,509,508,508,508,507,507,507,507,507,507,507,507,507,507,507,507,507,508,508,508,508,508,508,509,509,509,509,509,509,509,509,509,509,509,509,509,509,509,509,508,508,508,509,509,509,509,509,509,508,508,508,508,508,508,509,508,508,508,508,508,508,508,507,507,507,508,508,509,510,510,511,511,511,512,512,511,511,510,510,509,509,509,509,509,509,509,509,509,509,509,509,508,508,508,509,509,509,509,508,505,500,496,493,497,510,531,555,572,576,563,539,514,496,488,490,496,502,506,507,508,508,508,508,509,509,509,509,510,510,510,510,510,510,510,510,510,511,511,511,511,511,511,512,512,512,512,512,513,513,513,513,514,514,514,515,516,516,517,517,517,518,518,518,519,519,519,519,519,519,519,519,518,517,516,515,514,514,513,513,512,511,510,509,508,508,508,507,507,507,506,506,506,506,506,506,507,507,507,507,507,507,507,507,507,507,507,508,508,508,508,508,508,508,508,508,508,508,508,508,508,508,508,508,508,508,508,508,508,508,508,508,508,508,508,508,508,508,508,508,508,507,507,507,507,507,507,507,508,509,509,510,510,511,512,512,512,511,510,509,509,508,508,508,508,508,508,508,508,508,508,508,508,508,508,508,508,509,509,508,505,501,496,493,495,506,525,549,568,575,565,544,518,499,490,490,496,502,505,506,507,507,507,507,508,508,508,508,508,508,509,509,509,509,509,509,510,510,510,510,510,511,511,511,511,511,512,512,512,512,512,513,513,514,514,515,515,516,516,517,517,518,518,518,519,519,519,519,519,519,518,518,517,517,516,515,514,513,513,512,511,510,509,509,508,508,508,507,507,507,506,506,506,506,506,506,506,506,506,506,506,507,507,507,507,507,507,507,507,507,508,508,508,508,508,508,508,508,508,508,508,508,508,508,508,508,508,508,507,507,507,507,507,507,507,507,506,506,506,507,507,508,509,509,510,510,511,511,511,511,510,509,508,508,508,508,508,508,508,508,508,508,508,508,508,508,508,508,508,508,508,508,507,504,500,495,493,497,511,532,554,570,571,557,534,510,493,488,491,497,503,506,507,507,507,507,508,508,508,508,509,509,509,509,509,509,509,510,510,510,510,510,511,511,511,511,511,512,512,512,512,512,512,513,513,514,514,515,515,515,516,516,517,517,518,518,518,519,519,519,519,519,518,518,518,517,516,516,515,514,513,512,512,511,510,509,509,508,508,508,507,507,507,506,506,506,506,506,506,506,506,506,506,507,507,507,507,507,508,508,508,508,508,508,508,508,508,508,508,508,508,508,508,508,508,508,508,508,508,508,508,508,508,508,508,508,507,507,507,507,507,508,509,509,510,511,511,512,512,512,511,511,510,509,509,508,508,508,508,509,509,509,508,508,508,508,508,508,508,509,509,509,509,507,504,499,494,493,500,515,538,561,574,572,554,529,506,491,488,493,500,505,507,508,507,507,507,507,508,508,508,509,509,509,509,509,509,509,510,510,510,510,510,510,511,511,511,511,511,511,512,512,512,512,512,513,513,513,514,514,515,515,516,516,517,517,518,518,518,518,518,517,517,517,517,516,516,515,514,514,513,512,511,510,509,509,508,507,507,506,506,505,505,505,504,504,505,505,505,505,505,505,505,505,505,506,506,506,506,506,506,506,506,507,507,507,507,507,507,507,507,507,507,507,507,507,507,507,507,507,507,507,507,507,507,507,506,506,506,505,505,505,505,506,507,507,508,508,509,509,510,510,509,509,508,507,507,507,507,507,507,507,507,507,507,507,507,507,507,507,507,507,507,508,507,505,502,497,493,492,501,518,542,564,573,566,545,518,496,485,484,490,498,503,505,506,507,507,507,507,508,508,508,508,508,508,509,509,509,509,510,510,510,510,510,510,511,511,511,511,512,512,512,512,513,513,513,514,514,514,515,516,516,517,517,518,518,519,519,519,520,520,519,519,519,519,518,518,517,516,515,515,514,513,512,511,510,509,508,508,507,507,507,507,506,506,506,506,506,506,506,506,506,506,507,507,507,507,507,507,507,507,508,508,508,508,508,508,508,509,509,509,509,508,508,508,508,508,508,508,508,508,508,508,508,508,508,508,508,508,508,507,507,507,506,507,507,508,509,509,510,511,511,512,512,511,511,510,509,509,509,509,509,509,509,509,509,509,509,509,509,509,509,509,509,509,509,509,508,505,500,495,492,495,508,530,554,572,575,561,537,511,494,487,490,497,503,506,507,508,508,508,508,508,508,508,509,509,509,509,509,509,510,510,510,510,511,511,511,511,511,511,511,512,512,512,512,513,513,513,513,514,514,515,515,516,516,517,517,518,518,518,519,519,519,519,519,519,519,518,518,517,516,516,515,514,513,512,511,510,509,509,508,508,507,507,506,506,506,506,506,506,506,506,506,506,506,506,506,506,507,507,507,507,507,507,507,508,508,508,508,508,508,508,508,508,508,508,508,508,508,508,508,508,508,508,508,508,508,508,508,508,508,508,508,508,508,508,508,507,507,507,507,508,508,509,510,510,511,511,512,512,512,511,510,509,509,509,509,509,509,509,509,509,509,509,509,509,509,509,509,509,509,509,509,508,506,501,496,493,495,506,526,550,569,576,567,546,521,503,495,495,500,505,507,508,508,508,508,508,509,509,509,509,509,509,509,509,510,510,510,510,510,511,511,511,511,511,512,512,512,512,512,513,513,513,513,514,514,515,515,516,516,517,517,517,518,518,519,519,519,520,520,520,520,519,519,518,518,517,516,516,515,514,513,512,511,510,509,509,508,508,508,507,507,507,507,507,507,506,506,506,507,507,507,507,507,507,507,507,507,508,508,508,508,508,508,508,508,508,509,509,509,509,509,509,509,509,509,509,509,509,509,509,509,509,509,509,509,509,509,509,509,509,509,508,508,508,508,508,508,507,507,507,508,509,509,510,511,511,512,512,512,512,512,511,510,510,509,509,509,509,509,509,509,509,509,509,509,509,509,509,509,510,510,510,509,508,504,499,495,493,500,515,538,560,574,573,557,533,511,498,494,497,503,506,508,508,508,508,509,509,509,509,509,509,509,509,510,510,510,510,510,510,511,511,511,511,511,512,512,512,512,512,513,513,513,513,514,514,514,515,515,516,516,517,517,518,518,519,519,519,520,520,520,520,520,519,519,518,518,517,516,515,514,513,512,512,511,510,510,509,508,508,508,508,508,508,508,508,507,507,507,507,508,508,509,509,509,509,509,509,509,509,509,509,508,508,508,509,510,511,511,511,510,510,510,510,510,510,510,510,510,510,510,510,509,509,509,509,509,509,509,509,509,509,509,509,509,509,509,509,508,508,508,508,508,509,510,511,511,512,512,512,513,512,512,511,511,510,510,510,510,510,510,510,510,511,511,510,510,510,510,510,510,510,511,510,509,506,502,497,495,500,513,535,559,575,576,562,539,515,500,496,499,504,508,509,509,509,509,509,509,509,509,510,511,511,511,511,511,511,512,512,513,512,512,511,511,511,512,512,513,513,513,513,514,514,515,515,516,516,517,517,517,518,519,520,520,520,520,521,521,521,521,521,520,520,521,521,521,521,520,518,517,515,514,512,512,511,510,509,508,508,508,507,507,507,507,507,507,507,507,507,508,508,509,509,508,508,507,507,507,508,509,510,511,511,510,509,508,508,507,508,508,509,509,508,508,507,507,507,507,508,509,509,509,509,509,509,509,509,509,509,509,509,509,509,509,509,508,508,507,507,507,507,508,508,508,509,509,510,511,511,511,510,509,508,507,507,507,507,507,507,507,507,507,507,507,507,507,507,507,508,508,508,508,507,506,503,499,496,496,503,519,540,560,570,566,547,521,498,484,481,486,493,499,503,505,506,506,506,506,506,506,506,506,507,507,507,507,507,508,508,508,509,509,509,509,509,509,510,510,510,511,511,511,512,512,512,513,513,514,514,515,515,516,516,517,517,518,518,518,518,518,519,519,519,519,518,518,518,517,517,516,515,515,514,513,512,512,511,511,510,510,509,509,509,509,509,509,509,509,509,509,509,509,509,509,509,509,509,509,509,509,510,510,510,510,510,510,510,510,510,510,510,510,510,510,510,510,509,509,509,509,509,509,509,509,509,508,508,508,508,508,508,508,508,508,507,507,507,507,508,508,509,510,510,511,511,512,512,511,511,510,509,509,508,508,508,508,508,508,508,508,508,508,508,508,508,508,508,509,509,509,509,507,504,499,495,495,503,519,542,563,572,565,544,518,496,485,484,490,497,503,506,507,508,508,508,509,509,509,509,509,509,509,509,510,510,510,510,511,511,511,511,511,512,512,512,512,512,513,513,513,514,514,514,515,515,516,516,517,517,518,518,519,519,520,520,520,520,520,520,520,520,520,519,519,518,517,516,516,515,514,512,512,511,510,509,509,508,508,507,507,507,507,506,506,506,506,506,507,507,507,507,507,507,507,507,507,507,508,508,508,508,508,508,508,508,508,508,508,508,509,509,508,508,508,508,508,508,508,508,508,508,508,508,508,508,508,508,508,507,507,507,508,509,509,510,510,511,512,512,512,512,512,511,510,509,509,509,509,509,509,509,509,509,509,509,509,509,509,509,509,510,510,510,509,507,503,498,494,496,507,527,550,569,574,564,542,518,500,493,494,500,505,508,509,509,509,509,509,509,509,509,510,510,510,510,510,510,510,511,511,511,511,511,512,512,512,512,512,513,513,513,513,514,514,514,515,515,515,516,517,517,518,518,519,519,519,520,520,520,521,521,521,520,520,519,519,518,518,517,516,515,514,513,512,511,511,510,509,509,508,508,508,507,507,507,507,507,507,507,507,507,507,507,507,508,508,508,508,508,508,508,508,508,508,509,509,509,509,509,509,509,509,509,509,509,509,509,509,509,509,509,509,508,508,508,508,507,507,507,508,508,509,510,510,511,511,512,512,512,512,511,510,510,509,509,509,509,509,509,509,509,509,509,509,509,509,509,509,509,509,509,509,508,506,501,496,493,496,508,528,552,569,573,562,540,516,499,492,494,499,505,507,508,508,508,508,508,508,508,509,509,509,509,509,509,509,510,510,510,510,510,511,511,511,511,512,512,512,512,512,513,513,513,514,514,515,515,515,516,516,517,517,518,519,519,519,520,520,520,520,520,520,519,519,518,518,517,516,515,514,513,512,512,511,510,509,509,508,508,508,507,507,507,507,507,507,507,507,507,507,507,507,507,507,507,507,507,508,508,508,508,508,508,508,508,508,508,508,509,509,509,509,508,508,508,508,508,508,508,508,508,508,508,508,507,507,507,507,507,508,509,510,510,511,511,512,512,512,511,510,509,509,508,508,508,508,508,508,508,508,508,508,508,508,508,508,508,509,509,509,509,507,503,498,494,493,499,515,538,560,573,571,555,531,509,495,492,495,501,505,507,508,508,508,508,508,508,508,508,508,509,509,509,509,509,510,510,510,510,510,511,511,511,511,512,512,512,512,512,513,513,513,514,514,514,515,515,516,516,517,517,518,518,518,519,519,519,519,519,519,519,518,518,517,517,516,515,514,513,512,512,511,510,509,509,508,508,508,507,507,507,506,506,506,506,506,506,506,506,506,507,507,507,507,507,507,507,507,507,508,508,508,508,508,508,508,508,508,508,508,509,509,509,509,509,509,508,508,508,508,508,508,507,507,507,507,507,508,508,509,509,510,510,511,511,511,511,510,509,508,508,508,508,508,508,508,508,508,508,508,508,508,508,508,508,508,508,508,508,507,504,499,494,492,498,513,537,561,575,573,554,526,500,484,479,484,492,499,504,506,507,507,507,508,508,508,508,508,509,509,509,509,509,509,510,510,510,510,510,511,511,511,511,512,512,512,512,513,513,514,514,514,515,515,515,516,516,517,517,518,518,519,519,519,519,520,520,520,520,520,519,518,518,518,517,516,514,512,510,509,508,508,508,507,506,506,505,505,505,505,504,504,504,504,504,504,504,504,505,505,505,505,506,506,506,507,507,507,507,507,507,507,507,507,507,507,507,507,507,507,507,507,507,507,507,507,507,507,507,507,506,505,506,506,507,507,507,508,509,509,510,510,510,509,509,508,507,507,507,507,507,507,507,507,507,507,507,507,507,507,507,507,507,507,507,506,504,500,495,493,496,509,529,553,570,572,559,534,509,492,486,488,495,501,504,506,506,507,507,507,507,507,507,507,508,508,508,508,508,508,509,509,510,510,510,510,510,510,510,510,511,511,511,511,512,512,513,513,514,515,515,515,515,516,516,517,517,518,518,518,519,519,519,518,518,517,517,517,517,516,515,514,513,512,511,510,509,509,508,507,506,506,506,506,505,505,505,505,505,505,505,505,505,505,505,506,506,506,506,506,507,507,507,506,506,506,506,506,506,507,507,507,507,507,507,507,507,507,507,507,507,507,507,507,507,507,506,506,505,505,506,507,508,509,510,510,510,510,510,510,509,509,508,507,507,507,507,507,507,507,507,507,507,507,508,508,508,508,508,507,507,506,504,499,494,491,492,504,524,549,569,576,566,544,519,499,491,491,497,502,505,506,506,506,506,507,507,507,507,507,507,508,508,508,508,508,508,508,509,510,510,510,510,510,510,510,511,511,511,512,512,512,513,513,513,514,515,516,517,517,517,517,516,517,517,517,518,518,518,518,517,517,517,516,515,515,514,513,512,511,510,509,508,507,507,506,506,505,505,505,505,505,504,504,504,504,504,504,504,504,504,504,504,504,505,505,505,505,505,506,506,507,507,507,507,506,506,506,507,507,507,507,507,507,507,507,507,507,507,506,506,506,506,506,507,507,508,508,508,509,509,510,510,510,510,509,509,508,508,508,508,507,507,507,507,507,508,507,507,507,507,507,507,507,508,508,508,507,503,498,492,490,495,511,534,559,575,576,560,536,512,497,492,494,500,504,506,506,506,506,507,507,507,507,507,507,507,508,508,509,509,509,509,509,509,510,510,510,511,511,511,511,511,511,511,512,512,513,513,514,514,515,515,516,516,517,517,518,519,519,519,519,519,519,519,519,519,519,518,518,518,517,516,515,515,515,515,516,515,512,509,507,505,504,505,506,506,506,505,505,504,504,505,505,505,506,506,506,506,506,507,507,507,507,508,508,508,509,509,510,510,510,511,511,511,510,510,511,512,513,514,512,510,508,507,507,508,507,505,503,501,502,504,507,509,511,512,513,513,513,513,512,512,511,510,510,510,510,510,510,511,511,511,511,511,511,510,511,512,513,513,513,511,509,505,501,495,491,491,500,518,541,562,572,567,550,529,511,501,500,502,506,509,509,509,509,509,509,509,509,510,510,511,511,511,511,512,512,512,512,512,513,514,514,514,513,511,511,510,510,510,510,510,510,512,514,515,515,514,513,512,513,514,515,517,517,517,517,518,518,518,518,518,518,518,518,518,517,517,517,517,516,515,514,512,511,511,510,510,509,510,511,512,512,511,508,505,504,504,506,508,509,509,507,506,505,505,506,508,508,508,508,509,509,510,510,511,510,510,510,510,510,510,509,509,509,509,509,510,510,510,510,510,510,510,510,509,509,508,508,507,508,508,509,510,511,512,513,513,513,513,514,514,514,513,510,507,505,505,506,507,508,506,503,502,502,504,506,508,508,507,507,507,508,508,508,506,504,500,497,497,504,519,538,555,563,558,543,522,503,491,488,492,499,504,508,509,509,508,508,508,508,508,508,508,508,508,508,508,509,509,509,509,509,510,512,514,515,515,514,513,512,512,511,509,510,510,511,510,508,506,506,507,510,512,513,513,512,511,511,511,512,512,512,512,512,512,512,512,513,512,512,512,511,509,508,508,507,507,507,506,506,506,506,506,506,506,507,507,507,507,507,506,506,506,508,510,511,511,510,508,506,505,505,505,506,507,507,507,506,505,505,505,506,507,507,506,507,507,508,508,508,508,508,508,508,509,509,508,508,508,508,508,508,508,508,509,509,509,509,509,510,510,510,510,510,510,511,512,513,514,513,513,512,510,509,508,508,508,508,509,509,509,509,508,508,507,507,507,506,506,506,507,508,509,508,504,500,497,500,512,532,553,568,568,552,526,498,479,473,477,487,496,500,502,502,502,502,503,503,504,504,505,505,506,506,507,507,507,508,508,508,509,509,509,510,511,512,512,512,512,513,513,513,513,513,514,514,515,516,516,516,516,516,517,518,520,521,520,519,517,515,514,513,512,512,513,514,515,515,515,514,512,511,510,509,508,508,508,508,508,507,506,506,506,506,506,506,506,507,507,507,507,508,508,508,509,509,509,508,508,508,509,509,509,509,509,509,509,509,509,509,509,508,507,507,507,508,508,508,508,508,508,507,507,507,508,508,508,507,507,507,507,507,507,507,508,508,508,507,507,506,506,506,506,506,506,507,508,510,512,512,510,509,508,509,509,510,509,508,508,508,508,508,507,507,507,507,507,508,508,508,508,508,508,508,508,508,508,509,509,509,509,508,505,502,499,498,504,517,536,555,566,564,550,528,507,493,488,490,495,500,504,506,507,508,508,508,508,509,509,510,510,511,511,511,511,512,512,512,512,511,511,511,511,512,512,512,512,512,512,513,513,514,514,515,515,515,515,515,515,516,516,517,517,517,517,517,517,518,518,519,519,519,518,518,517,517,516,516,516,516,517,517,515,513,511,509,508,507,507,507,507,508,508,508,507,507,507,507,507,507,507,507,506,507,507,507,507,508,508,508,508,508,509,509,509,509,509,509,509,509,509,509,509,509,509,509,508,508,508,508,509,509,510,509,509,509,508,509,509,510,511,511,510,510,509,509,509,509,510,511,512,512,513,513,513,512,511,510,510,509,509,508,508,508,508,508,509,509,509,509,509,508,507,507,507,507,507,508,508,507,505,501,497,495,501,515,535,556,569,568,553,529,505,490,485,489,497,504,508,509,510,510,510,511,512,512,512,512,512,512,513,513,514,514,514,514,514,514,514,515,515,515,515,515,515,515,515,515,515,515,516,517,517,517,517,517,518,519,519,520,520,519,520,520,520,520,521,520,520,519,519,519,518,518,518,517,516,515,514,514,513,513,512,511,510,509,509,509,509,509,510,510,510,510,510,510,510,510,510,510,510,510,511,511,511,511,511,511,510,510,510,510,510,511,511,511,511,510,510,511,511,512,512,512,511,511,510,510,510,510,510,511,511,511,511,510,509,509,509,510,511,511,511,511,511,512,513,514,514,514,513,512,511,511,511,511,511,511,511,511,510,510,510,510,510,511,511,511,511,511,511,510,510,509,507,504,501,500,505,516,534,552,566,567,556,536,515,500,494,496,501,506,509,510,510,510,510,510,510,510,511,511,512,512,512,512,511,511,511,512,512,513,513,513,513,513,513,513,514,514,514,514,513,513,514,514,515,515,516,516,516,517,517,517,518,518,518,519,519,519,519,518,518,518,518,518,518,517,517,516,516,515,515,514,513,513,512,511,511,510,510,509,509,509,509,509,509,509,509,509,509,509,509,509,509,509,509,509,509,509,509,509,508,508,508,508,508,508,508,508,508,508,508,509,509,510,510,510,509,509,509,509,509,510,510,510,510,511,511,511,512,513,514,515,515,515,515,514,513,512,511,510,509,509,509,510,510,511,512,512,512,511,509,507,505,505,506,507,508,508,507,504,499,495,493,496,506,524,544,560,564,554,533,510,491,482,483,489,497,503,506,507,508,508,508,508,508,509,509,509,509,509,510,510,511,512,512,511,511,511,512,512,513,513,513,512,511,511,511,511,512,513,513,514,514,514,515,515,515,515,516,516,516,517,517,517,518,518,518,517,517,517,517,516,516,515,514,514,514,513,512,511,510,509,508,509,509,509,509,508,507,507,507,506,505,505,505,505,506,507,507,507,507,507,507,507,507,507,507,507,507,507,507,507,508,508,508,508,508,508,507,507,507,507,507,507,507,507,507,507,508,508,509,510,511,511,511,511,511,511,511,511,510,508,507,506,506,507,507,507,508,508,508,508,507,507,507,507,508,508,508,508,507,504,500,497,497,502,515,533,552,563,562,547,525,504,489,485,489,496,502,505,507,507,507,507,507,508,508,508,508,509,509,509,509,509,509,510,510,510,510,510,511,511,511,511,512,512,512,512,512,513,513,513,514,514,514,515,515,516,516,517,517,517,518,518,518,518,518,518,518,518,518,518,517,517,516,515,515,514,513,513,512,511,510,510,510,510,509,509,508,508,508,508,508,508,508,508,508,508,508,508,508,508,509,509,509,509,509,509,509,509,509,509,509,509,509,509,509,509,509,509,509,509,509,508,508,508,508,508,509,510,511,511,511,512,512,512,512,512,511,510,509,509,508,508,508,509,509,509,509,509,509,509,509,508,508,508,509,509,509,509,508,505,500,496,493,498,512,536,561,578,580,563,536,509,490,483,487,494,501,505,507,507,507,507,508,508,508,508,508,509,509,509,509,509,510,510,510,510,510,511,511,511,511,511,512,512,512,512,512,512,513,513,514,514,515,515,516,516,517,517,518,518,519,519,519,519,520,520,520,519,519,518,517,516,516,515,514,513,512,510,509,509,508,507,507,506,506,506,505,505,505,505,505,505,505,505,505,505,505,505,505,506,506,506,506,506,506,507,507,507,507,507,507,507,507,507,507,507,507,507,507,507,507,507,506,506,507,507,508,509,510,510,511,511,511,511,511,510,509,509,508,508,508,508,508,508,508,508,508,508,508,508,508,508,508,508,508,508,508,508,505,501,496,493,495,507,528,553,573,579,568,544,517,496,487,487,494,500,504,506,507,507,507,508,508,508,508,508,508,508,509,509,509,509,509,510,510,510,510,510,510,511,511,511,512,512,512,512,512,513,513,514,514,514,515,515,516,517,517,518,518,519,519,520,520,520,520,520,519,519,518,518,517,516,515,514,513,512,511,510,509,509,508,508,507,507,506,506,506,506,506,506,506,505,505,505,505,505,505,506,506,506,506,506,506,506,507,507,507,507,507,507,507,507,508,508,508,508,508,508,508,508,508,508,507,507,507,507,507,507,507,507,506,506,506,507,507,508,509,509,510,510,511,511,511,510,509,509,508,508,508,508,508,508,508,508,508,508,508,508,508,508,508,508,508,508,508,508,506,503,498,494,492,498,514,537,561,576,575,559,534,510,494,490,493,499,504,506,507,507,507,507,507,508,508,508,508,508,508,509,509,509,509,509,510,510,510,510,510,511,511,511,511,512,512,512,512,512,513,513,514,514,515,515,516,516,517,518,518,519,519,520,520,520,520,520,520,520,519,519,518,517,516,515,514,513,512,511,510,509,509,508,508,507,507,507,506,506,506,506,506,506,506,506,506,506,506,506,506,506,506,507,507,507,507,507,507,507,507,507,507,508,508,508,508,508,508,508,508,508,508,508,508,508,508,508,508,508,508,508,508,508,508,508,508,508,508,508,508,508,508,508,508,508,507,507,507,507,507,508,508,509,510,510,511,511,512,512,511,511,510,509,509,509,509,509,509,509,509,509,509,509,509,509,509,509,509,509,509,509,509,509,507,503,498,494,494,502,519,542,564,576,573,556,532,510,497,493,497,502,505,507,507,507,507,508,508,508,508,508,508,509,509,509,509,509,509,510,510,510,510,510,511,511,511,511,512,512,512,512,512,513,513,513,514,514,515,515,516,516,517,517,518,519,519,519,520,520,520,520,520,520,519,519,519,518,517,516,515,514,513,512,511,510,510,509,508,508,508,507,507,507,507,507,507,507,507,507,507,507,507,507,507,507,507,507,507,507,507,507,507,507,507,507,508,508,508,508,508,508,508,508,508,508,508,508,508,508,508,508,508,508,508,508,508,508,508,508,508,508,508,508,508,508,508,508,508,508,508,508,508,508,508,508,508,508,508,508,508,509,509,508,508,508,508,508,508,508,507,507,508,508,509,510,510,511,511,512,512,512,512,511,510,510,509,509,509,509,509,509,509,509,509,509,509,509,509,509,509,509,509,509,509,508,506,502,497,494,496,505,523,546,566,576,570,550,526,505,494,493,497,502,505,507,507,508,508,508,508,508,509,509,509,509,509,509,510,510,510,510,510,511,511,511,511,511,511,512,512,512,512,513,513,513,514,514,514,515,515,515,516,517,517,518,518,519,519,520,520,520,521,521,521,521,520,520,520,519,518,517,516,515,514,513,512,511,510,510,509,509,508,508,508,508,507,507,507,507,507,507,507,507,507,507,507,507,507,507,507,508,508,508,508,508,508,508,508,508,508,508,508,508,509,509,509,509,509,509,509,509,509,509,509,509,509,509,509,509,509,509,509,509,509,509,509,509,509,509,509,509,509,509,509,509,509,509,509,509,509,509,509,509,509,509,509,509,509,509,509,509,509,510,510,510,509,509,509,509,509,509,509,509,509,509,509,509,509,510,511,511,512,512,512,513,513,513,512,512,511,511,510,510,510,510,510,510,510,510,510,510,510,510,509,509,509,510,510,510,510,509,506,502,497,495,498,510,530,553,570,575,565,543,519,501,493,494,499,504,506,507,508,508,508,509,509,509,509,509,509,509,509,510,510,510,510,511,511,511,512,512,512,512,512,512,512,511,511,511,512,513,513,514,514,514,514,515,516,516,517,518,518,519,519,519,520,520,520,520,520,520,520,519,519,518,518,517,516,515,514,513,512,511,510,509,509,509,508,508,507,507,507,507,507,507,507,507,507,506,506,506,506,507,507,507,507,507,507,507,507,508,509,509,510,510,509,509,509,509,509,510,510,510,510,510,510,510,510,509,509,509,509,510,510,511,510,510,510,510,510,510,510,510,510,511,511,512,512,511,510,509,509,509,509,510,510,510,509,509,509,509,509,509,509,509,509,510,510,510,509,509,509,509,509,509,509,510,510,511,511,512,512,512,513,513,513,513,512,511,510,510,510,510,510,510,510,510,510,510,510,510,510,510,510,510,511,511,511,509,507,502,498,494,496,506,524,547,568,577,571,552,528,508,497,495,498,503,506,508,509,509,509,509,509,509,509,509,510,510,510,510,510,510,511,511,512,512,512,511,511,511,511,511,511,510,509,509,508,507,507,507,508,508,510,511,512,514,515,517,518,519,520,521,522,523,524,524,525,525,525,525,524,524,523,522,521,519,518,517,516,515,515,514,513,512,511,510,509,509,509,508,508,509,509,509,508,507,506,506,505,506,506,507,507,507,507,507,507,508,508,507,507,507,508,509,509,510,510,510,509,509,508,508,507,507,507,507,507,507,507,506,506,506,505,506,506,506,506,506,506,506,506,506,506,506,506,506,506,506,506,506,507,507,507,508,508,508,509,509,510,511,511,512,512,512,512,511,511,511,510,509,509,509,509,510,510,511,511,511,510,510,510,510,510,510,510,511,510,509,507,503,501,502,511,529,551,568,573,561,536,506,480,466,463,469,478,488,497,504,508,509,510,510,510,511,511,511,512,512,512,512,511,511,512,512,512,512,513,513,513,513,513,512,512,513,513,514,514,515,515,516,516,517,517,518,518,519,519,519,519,520,520,520,521,521,520,520,520,520,520,520,519,518,517,516,515,514,513,512,511,511,510,510,510,510,509,509,508,508,508,508,508,508,507,507,508,508,508,508,509,509,509,509,509,509,509,509,509,509,509,509,510,511,511,511,511,511,510,510,509,509,510,510,510,510,510,510,510,510,510,510,510,510,510,510,510,510,510,509,509,509,509,509,509,510,511,511,512,512,512,512,512,512,513,513,513,512,511,510,510,510,510,511,511,511,510,510,510,510,510,510,510,510,511,511,511,510,509,507,503,499,497,501,513,533,556,571,573,558,533,507,489,482,484,491,499,504,507,509,509,510,509,509,509,510,510,510,511,511,511,512,512,512,512,512,512,512,512,512,513,513,513,513,513,514,514,514,514,515,515,516,516,517,517,518,519,519,520,521,521,522,522,523,523,523,523,523,523,522,522,521,519,518,517,516,515,514,512,512,511,510,509,508,507,507,507,507,507,506,506,506,506,506,506,506,506,506,506,506,506,506,507,507,507,507,508,508,508,508,508,508,508,509,509,509,509,508,508,508,508,508,509,509,509,509,509,508,508,508,508,508,508,508,508,508,509,509,510,510,510,511,511,512,512,511,511,510,510,509,509,509,509,509,510,510,510,509,509,510,510,510,510,511,511,511,511,510,508,504,498,494,494,503,521,546,570,584,581,562,537,513,498,493,496,501,505,508,509,509,510,510,510,511,511,511,511,511,511,512,512,512,512,512,512,513,513,513,514,514,514,514,514,514,514,514,515,515,516,516,517,518,518,519,520,521,521,522,523,523,524,525,525,526,526,526,526,525,525,524,523,522,520,519,517,516,515,514,512,512,511,510,510,509,509,508,508,508,508,508,508,508,508,507,507,507,507,507,507,508,508,508,508,508,508,508,508,508,509,509,509,509,509,509,509,509,509,509,509,509,509,509,509,509,509,509,509,509,508,508,508,508,508,508,509,510,510,510,511,511,512,512,512,512,511,511,510,510,510,510,510,510,510,510,510,510,510,510,510,510,510,510,510,510,510,508,504,498,492,490,496,513,539,567,587,591,578,555,531,514,507,506,508,508,508,507,507,507,508,508,508,508,508,508,508,509,509,509,509,509,509,510,510,510,510,510,511,511,511,511,511,511,512,512,512,513,513,513,514,514,515,516,516,517,518,518,519,520,520,521,521,522,522,521,521,521,520,519,518,517,516,514,513,512,511,510,509,508,507,507,507,506,506,506,506,506,505,505,505,505,506,506,506,506,506,506,506,505,505,506,506,506,506,506,506,506,506,507,507,507,507,507,507,507,507,507,507,507,506,506,506,506,505,505,505,506,506,507,507,508,509,509,510,510,511,511,510,509,509,508,508,508,508,508,508,508,508,508,508,508,508,508,508,508,509,509,509,508,506,502,496,491,488,493,509,534,561,581,587,576,554,532,516,508,507,509,509,508,507,507,507,508,508,508,508,508,508,508,509,509,509,509,509,509,509,510,510,510,510,510,510,511,511,511,512,512,512,512,512,513,513,514,515,516,516,516,517,518,519,520,521,521,521,521,521,522,522,522,521,521,520,519,518,517,516,514,513,512,510,509,509,508,508,508,507,507,507,507,507,507,507,507,507,507,508,508,508,508,508,509,509,509,509,509,509,510,510,510,511,511,511,511,511,511,512,512,512,512,512,511,511,511,511,511,510,510,509,509,510,510,510,511,511,511,512,513,514,514,514,513,513,512,512,511,511,511,512,512,512,512,512,512,512,512,512,512,512,512,512,512,512,509,504,498,493,493,503,523,550,575,589,587,571,548,528,515,511,512,513,513,512,511,510,510,511,511,511,511,511,512,512,512,512,512,512,512,512,512,513,513,513,513,513,513,514,514,514,514,515,515,515,516,516,517,517,518,518,518,519,520,521,522,522,523,523,523,524,524,524,524,524,523,522,521,520,519,517,516,515,513,512,512,511,510,509,509,508,508,508,508,508,508,508,508,508,508,508,508,508,507,507,507,508,508,509,509,509,509,509,509,509,509,510,510,510,511,511,511,511,512,512,513,514,514,514,514,514,513,513,513,512,512,511,511,512,512,513,513,513,514,514,515,515,515,515,515,514,513,513,513,513,513,513,513,513,513,513,512,512,512,512,512,512,513,513,513,512,508,502,495,490,492,506,531,560,584,594,586,564,539,519,508,507,509,511,511,511,510,510,510,510,510,510,510,510,511,511,511,511,511,511,512,512,512,512,512,512,512,513,513,513,513,514,514,514,514,515,515,516,516,517,517,518,519,519,520,521,521,522,522,523,523,523,524,523,523,523,522,521,520,519,518,516,515,514,512,512,511,510,510,509,508,508,508,508,507,507,507,507,507,507,507,507,507,507,507,507,507,508,508,508,508,508,508,508,508,509,509,509,509,509,509,509,509,510,510,510,510,510,510,510,510,510,510,510,510,510,509,509,509,509,508,508,508,508,509,510,510,511,511,511,512,513,513,513,513,512,511,510,510,510,510,511,511,511,511,511,510,510,510,510,510,510,511,511,511,511,508,504,497,491,489,495,513,539,568,587,591,578,554,531,515,508,508,510,511,510,509,508,508,508,509,509,509,509,509,509,509,509,510,510,510,510,510,510,511,511,511,511,512,512,512,512,512,512,513,513,514,514,515,515,516,516,517,517,518,519,520,520,521,521,522,522,523,523,523,523,522,521,520,519,518,517,516,515,513,512,511,510,510,509,508,508,508,508,508,507,507,507,507,507,507,507,507,507,507,508,508,508,508,508,508,508,508,508,508,508,509,509,509,509,509,509,509,509,509,510,510,510,510,510,510,510,510,510,510,510,509,509,509,509,509,508,508,508,509,510,510,511,511,511,512,512,513,513,512,512,511,510,510,510,510,510,510,510,510,510,510,510,510,510,510,510,510,511,511,511,509,504,497,491,489,496,514,542,571,590,593,577,552,527,511,504,505,508,510,510,509,509,508,509,509,509,509,509,509,509,509,510,510,510,510,510,511,511,511,511,511,511,511,512,512,512,512,513,513,513,513,514,514,515,515,516,516,517,518,519,519,520,521,521,522,522,522,522,522,522,521,521,520,519,517,516,515,513,512,511,510,510,509,508,508,507,507,506,506,506,506,506,506,506,506,506,506,506,506,506,506,506,506,506,506,506,506,506,507,507,507,507,507,507,507,508,508,508,508,508,508,508,508,508,508,508,508,508,508,508,508,508,508,508,508,508,509,509,509,509,509,509,509,509,509,509,508,508,508,508,508,507,507,508,508,509,509,510,510,511,511,512,512,512,512,511,510,509,509,509,509,509,509,509,510,510,510,509,509,509,509,509,510,510,511,511,509,506,500,494,491,494,508,532,561,585,594,585,561,533,511,500,498,502,506,508,508,508,508,509,509,509,509,509,510,510,510,510,510,511,511,511,511,512,512,512,512,512,513,513,513,513,514,514,514,515,515,516,517,517,518,518,519,519,520,521,521,522,523,524,524,525,525,526,526,526,525,525,524,523,522,521,520,519,517,516,514,513,512,511,510,510,509,508,508,508,507,507,507,507,507,507,507,507,507,507,507,507,507,507,508,508,508,508,509,509,509,509,509,509,509,509,509,509,510,510,510,510,510,510,510,510,510,510,509,509,509,509,509,509,509,510,510,510,510,510,510,510,510,510,510,510,510,510,510,510,510,509,509,509,509,509,509,509,510,510,511,511,511,512,512,513,514,514,513,512,512,511,511,511,511,511,511,511,511,511,511,511,510,510,510,510,510,511,511,511,510,507,502,495,490,490,502,524,554,580,593,587,567,540,518,505,502,504,507,508,508,507,507,507,507,507,507,507,507,507,507,507,507,508,508,508,508,508,508,509,509,509,509,509,509,509,510,510,510,510,511,511,512,512,513,513,513,514,515,515,516,517,518,519,519,519,519,519,520,520,519,519,518,518,517,515,514,512,511,509,508,507,506,505,505,504,503,503,503,503,503,502,502,502,502,502,502,502,502,502,502,502,503,503,503,503,503,502,503,503,503,503,504,504,504,504,504,504,504,504,504,504,504,504,504,505,505,505,505,505,504,504,504,504,504,504,505,505,505,505,505,505,505,504,504,504,504,505,505,505,505,505,505,504,504,505,505,505,505,505,505,505,505,505,505,504,504,504,504,504,504,504,504,504,505,506,506,507,507,508,508,508,508,508,507,507,506,506,506,506,506,506,506,506,506,506,506,506,506,506,506,506,507,507,506,505,502,497,491,487,488,500,521,549,573,584,578,559,535,516,506,503,505,506,506,505,504,504,505,505,505,505,505,505,505,505,506,506,506,506,506,506,507,507,507,507,507,507,508,508,508,508,509,509,509,510,510,510,511,511,512,512,513,514,515,515,516,516,517,517,518,518,519,519,520,520,519,519,518,517,516,515,513,512,510,509,508,507,506,505,504,504,504,503,503,502,502,502,502,502,503,503,503,503,503,503,503,502,502,502,503,503,503,503,503,503,503,503,504,504,504,504,504,504,504,505,505,505,505,505,505,505,505,505,505,505,504,504,504,504,505,505,505,505,505,505,505,505,505,505,504,505,505,505,505,506,506,506,506,506,506,506,506,505,505,505,506,506,506,507,507,507,506,505,504,504,504,505,506,507,507,508,509,509,510,510,510,510,509,508,507,507,507,507,508,508,508,507,507,507,507,507,508,508,507,507,507,507,507,506,503,499,493,490,493,505,526,552,573,581,573,552,528,509,500,499,502,505,506,506,506,506,506,506,506,506,507,507,507,507,507,508,508,508,508,509,509,509,509,509,510,510,510,510,510,511,511,511,511,512,512,512,513,513,513,514,515,515,516,517,518,519,519,519,519,519,520,520,521,521,520,519,518,517,516,515,514,513,512,511,510,509,508,507,506,506,505,505,505,505,505,504,504,505,505,505,506,505,505,505,505,506,507,509,509,509,508,507,506,506,506,506,506,506,506,506,506,507,507,507,507,507,507,507,507,507,506,506,506,506,506,506,506,506,506,506,506,506,506,506,506,506,506,506,506,506,506,507,507,507,507,507,507,507,508,508,508,508,507,506,506,507,507,507,507,507,506,506,506,506,506,507,507,508,508,509,509,510,510,510,510,509,509,508,507,507,507,507,507,507,507,508,508,508,508,508,508,507,508,508,508,508,508,507,503,498,493,491,497,514,539,564,578,576,556,528,502,485,480,484,491,498,502,505,506,507,508,509,509,509,509,509,509,510,511,511,512,512,512,512,512,512,512,513,513,513,514,514,514,515,515,515,516,516,516,516,517,518,519,520,520,521,521,522,522,523,524,524,524,525,525,525,525,525,524,524,523,523,522,521,520,519,518,516,515,514,512,512,511,510,510,510,510,509,509,509,509,509,509,509,509,509,509,510,510,510,510,510,510,511,511,511,511,511,511,511,511,511,511,511,511,512,512,512,512,512,512,512,512,512,512,512,512,512,512,512,512,512,512,512,512,512,512,512,512,512,512,512,512,512,512,512,512,512,512,512,512,512,512,512,512,513,513,514,514,514,514,515,515,516,516,515,514,514,513,513,513,513,513,513,513,513,513,513,513,513,513,513,513,513,514,514,513,512,507,501,495,494,503,523,550,574,587,582,562,535,512,499,496,501,506,510,512,512,512,512,512,513,513,513,513,513,513,513,513,514,514,514,515,515,515,515,515,515,515,516,516,516,516,517,517,517,518,518,518,519,519,520,521,522,522,523,524,524,525,526,526,527,527,527,528,527,527,527,526,525,524,523,522,520,519,517,516,515,514,513,512,512,511,511,510,510,510,509,509,509,509,509,509,509,509,509,509,509,509,509,509,509,509,510,510,510,510,510,511,511,511,511,511,511,511,511,511,511,511,511,511,511,511,511,510,510,510,510,511,511,511,511,511,511,511,511,511,511,511,511,511,511,510,510,510,510,510,510,509,509,509,510,510,511,512,512,513,513,514,514,514,513,512,512,511,511,511,511,511,511,511,511,511,511,511,511,511,511,511,511,512,512,511,508,503,497,492,492,503,524,552,577,589,582,561,533,509,496,493,497,503,506,508,509,509,509,510,510,510,510,510,510,511,511,511,511,511,512,512,512,512,512,513,513,513,513,514,514,514,514,515,515,515,516,516,517,517,518,518,519,520,520,521,522,522,523,524,524,524,525,525,525,525,524,524,523,522,520,519,518,516,515,513,512,511,510,510,509,509,508,508,508,507,507,507,507,507,506,506,506,506,506,506,506,507,507,507,507,507,507,507,508,508,508,508,508,508,508,508,508,508,508,508,508,508,508,508,508,508,508,508,508,508,508,508,508,508,508,508,508,507,507,507,507,506,506,506,506,507,507,508,509,509,510,510,511,511,511,510,509,509,508,508,508,508,508,509,509,509,509,509,509,509,509,509,509,509,509,509,508,506,501,494,488,488,497,517,546,573,589,587,570,545,522,509,505,506,508,509,508,507,507,507,507,507,508,508,508,508,508,508,508,508,509,509,509,509,509,510,510,510,511,511,511,511,511,512,512,512,512,513,513,514,514,515,515,516,517,518,518,519,520,520,521,522,522,522,523,523,522,522,521,520,519,518,516,515,513,512,511,510,509,508,507,507,506,506,506,506,506,506,505,505,505,505,505,505,505,505,505,505,505,505,505,505,506,506,506,506,506,506,506,507,507,507,507,507,507,507,508,507,507,507,507,508,508,508,507,507,507,507,506,506,506,506,507,507,508,508,509,509,510,511,511,511,511,510,510,509,509,508,508,508,508,508,508,508,508,508,508,508,508,508,508,509,509,509,508,506,500,494,488,488,498,520,548,573,587,582,563,539,518,506,503,505,507,508,507,507,507,507,507,507,507,507,507,507,507,508,508,508,508,508,509,509,509,509,510,510,510,510,510,511,511,511,512,512,513,513,514,514,515,515,516,516,517,518,518,519,520,521,521,522,522,523,523,522,522,521,521,520,519,517,516,514,513,512,510,509,508,507,507,506,506,506,505,505,505,505,505,505,505,505,505,505,505,505,505,505,505,505,505,505,505,505,506,506,506,506,506,506,506,506,507,507,507,507,507,507,507,507,507,508,507,507,507,507,507,507,506,506,506,506,506,507,508,508,509,509,510,511,511,511,510,510,509,508,508,508,508,508,508,508,508,508,508,508,508,508,508,508,508,508,509,508,507,504,498,491,487,491,505,529,557,578,583,573,550,526,509,501,501,504,507,507,507,507,507,506,507,507,507,507,507,507,508,508,508,508,508,509,509,509,509,509,509,510,510,510,511,511,511,512,512,512,513,513,513,514,515,515,516,516,517,518,519,520,521,521,521,522,522,522,522,522,521,521,520,519,518,516,515,514,512,511,510,509,508,507,507,506,506,506,505,505,505,505,505,505,505,505,505,505,505,505,505,505,505,505,505,506,506,506,506,506,506,506,506,507,507,507,507,507,507,507,507,508,508,508,508,508,508,507,507,507,507,507,508,508,508,508,508,507,507,507,507,507,507,506,506,506,507,507,508,509,509,509,510,510,511,511,510,510,509,508,508,508,508,508,509,509,508,508,508,508,508,508,508,508,508,508,509,509,509,506,502,495,490,488,496,514,541,566,582,581,564,539,517,504,500,502,506,507,508,507,507,507,507,508,508,508,508,508,508,508,508,508,509,509,509,509,510,510,510,510,511,511,511,512,512,512,512,512,513,513,514,514,515,515,516,517,517,518,519,520,520,521,522,522,522,523,523,523,523,522,522,521,520,518,517,516,514,513,512,511,510,509,508,508,507,507,506,506,506,506,506,506,506,506,506,506,506,506,506,506,506,506,506,506,506,506,506,507,507,507,507,507,507,507,507,507,507,507,507,507,508,508,508,508,508,508,508,508,508,508,508,508,507,508,508,508,508,508,508,508,508,508,508,508,508,508,508,508,508,508,508,508,508,508,508,508,508,508,508,507,507,507,507,507,507,507,507,508,508,509,509,510,510,511,511,512,511,511,510,509,509,509,509,509,509,509,509,509,509,509,509,509,509,509,509,509,509,510,509,508,505,499,492,488,491,505,528,555,575,582,572,551,527,510,502,501,504,507,508,508,508,508,508,508,509,509,509,509,509,509,509,509,510,510,510,511,511,511,511,511,511,512,512,512,513,513,513,514,514,514,515,515,516,516,517,518,518,519,520,521,522,522,523,523,524,525,525,526,526,526,525,524,523,522,521,520,518,517,515,514,513,512,512,511,510,509,509,509,508,508,508,507,507,507,507,507,507,507,507,507,507,507,507,508,508,508,508,508,507,507,508,508,509,509,509,509,509,509,509,509,509,510,510,510,510,510,510,510,510,510,510,510,510,510,510,510,510,510,509,509,509,509,510,510,510,510,510,510,510,510,510,510,509,509,509,509,508,508,508,508,508,508,509,509,510,510,511,511,512,512,513,513,512,512,511,510,510,510,509,510,510,510,510,510,510,510,510,510,510,510,510,510,510,510,509,508,504,499,493,491,496,512,536,561,577,578,563,540,517,503,498,500,504,506,507,507,507,507,507,507,507,507,507,507,507,507,507,507,507,507,507,507,508,508,508,509,509,509,509,509,509,510,510,510,510,510,510,511,511,512,512,513,514,515,516,516,517,517,518,518,519,519,520,520,519,519,519,518,517,515,514,512,511,510,509,508,506,505,504,503,503,502,502,501,501,501,501,501,501,501,501,501,501,501,501,501,501,501,501,501,501,501,502,502,502,502,503,503,503,503,503,503,503,504,504,504,504,504,504,504,504,504,504,504,504,504,504,504,504,504,504,504,504,504,504,504,504,504,504,504,504,504,504,504,505,505,505,505,504,504,504,505,505,505,505,504,504,503,504,504,504,505,505,505,505,505,505,505,505,505,505,504,504,503,504,504,505,505,505,505,504,504,504,504,504,504,504,504,504,505,506,507,507,508,508,509,508,508,507,506,505,505,506,506,507,506,506,505,505,505,506,506,506,506,505,505,505,505,506,506,505,502,497,492,490,495,509,532,557,575,577,563,538,513,495,488,490,496,502,504,505,506,506,506,507,507,507,507,507,507,507,507,508,509,509,510,509,509,509,509,510,510,510,511,511,511,512,512,512,512,512,513,513,514,514,515,515,516,516,517,517,518,519,519,520,520,521,521,521,521,521,520,520,519,518,517,516,515,514,513,512,512,511,510,508,507,506,505,505,506,506,506,505,505,504,504,505,505,505,505,504,504,504,504,504,505,505,505,505,505,505,505,505,505,506,506,506,506,506,506,506,507,507,507,507,507,507,507,507,506,507,507,507,507,507,507,507,507,507,507,507,507,507,507,507,507,507,507,507,507,507,507,507,507,507,507,508,508,508,508,507,507,508,508,508,508,508,508,507,507,507,507,507,507,507,508,509,509,510,510,510,510,511,511,511,511,511,510,509,508,508,508,508,508,508,508,509,509,508,508,508,508,508,508,508,508,508,508,508,506,502,497,493,493,502,520,544,566,576,570,550,524,502,490,488,492,499,504,506,507,507,507,507,507,507,507,508,508,508,508,508,509,509,510,509,509,509,509,510,510,510,510,510,511,511,512,512,512,513,513,513,513,513,514,515,515,516,516,517,517,518,519,519,520,521,521,521,521,521,521,520,519,519,518,517,516,514,513,512,511,509,509,508,507,506,505,505,505,505,504,504,504,504,504,504,503,503,503,504,504,504,504,504,504,504,504,504,504,504,504,505,505,505,505,506,506,506,506,506,506,506,506,506,506,506,506,506,506,506,506,506,506,506,506,506,506,506,507,506,506,506,506,506,506,506,506,506,506,506,506,506,506,506,506,506,506,506,507,507,507,507,507,507,507,506,506,506,506,506,506,506,506,506,507,507,508,508,509,509,510,510,510,510,510,509,508,508,507,507,507,507,507,507,507,507,507,507,508,508,508,507,507,507,508,508,507,506,502,497,492,491,496,512,535,559,575,576,561,537,513,497,492,494,500,505,506,507,506,506,506,506,506,506,507,507,507,507,508,508,508,508,509,509,509,509,510,510,510,510,510,511,511,511,511,511,512,512,512,513,514,514,515,515,516,517,518,518,519,520,520,521,521,521,522,522,522,521,521,520,519,518,518,517,516,515,514,512,511,510,509,509,508,507,507,506,506,506,506,506,505,505,505,505,505,505,505,505,505,505,505,506,506,506,506,506,506,506,506,506,506,506,507,507,507,507,507,508,508,508,508,508,508,508,508,508,508,508,508,508,507,507,507,507,507,507,507,508,508,508,508,508,508,508,508,508,508,508,508,508,508,508,508,508,508,508,508,508,508,508,508,508,507,507,507,507,507,507,508,509,509,510,511,511,512,512,512,512,511,510,510,509,509,509,509,509,509,509,509,509,508,508,508,508,508,509,509,509,510,510,509,507,503,498,493,493,500,517,541,565,578,576,559,534,511,497,493,496,501,505,507,507,508,508,508,508,508,508,508,508,509,509,509,509,509,509,509,510,510,511,511,511,511,511,512,512,512,512,512,512,512,513,513,514,514,515,515,516,516,517,518,518,519,519,520,521,521,522,522,522,522,522,521,521,520,519,519,518,516,515,513,512,511,510,509,509,508,507,507,507,507,507,506,506,506,506,506,506,506,506,506,506,506,506,506,506,506,506,507,507,507,507,507,507,507,507,507,508,508,508,508,508,508,508,508,508,508,508,508,508,508,508,508,508,507,507,507,507,507,507,508,508,508,508,508,508,508,508,508,508,508,508,508,508,508,508,508,508,508,508,507,507,507,507,508,508,508,509,510,510,511,511,512,512,512,512,511,511,510,509,509,509,509,509,509,509,509,509,509,509,509,509,509,509,510,510,510,510,510,508,504,499,494,493,501,517,542,565,579,578,561,536,513,498,494,497,503,506,508,508,508,508,509,509,509,509,509,509,509,510,510,510,510,511,511,511,511,512,512,512,512,512,512,513,513,513,513,513,513,513,514,514,515,515,516,516,517,517,518,518,519,520,520,520,521,521,521,522,522,522,522,521,520,519,518,517,516,515,513,512,511,510,509,508,508,508,507,507,507,507,507,507,507,506,506,506,506,507,507,507,507,507,507,507,508,509,509,509,508,507,507,508,508,509,509,508,508,508,508,509,509,509,509,509,510,510,510,510,510,510,509,509,509,509,509,509,509,509,509,509,509,509,509,509,509,508,508,509,509,509,509,508,508,507,507,506,507,507,508,509,509,510,510,510,510,510,510,510,509,509,508,508,508,507,507,507,507,507,507,507,507,507,507,506,506,506,507,507,507,507,507,506,503,499,494,493,499,516,540,563,575,570,549,519,493,476,472,477,486,495,501,505,507,507,507,508,508,508,508,509,509,509,509,509,509,510,510,510,511,511,511,512,512,512,512,513,513,513,514,514,514,514,515,515,516,517,517,518,518,519,519,520,520,521,522,523,524,524,524,524,524,524,524,523,522,521,520,518,517,515,514,513,512,511,510,509,508,508,507,507,507,506,506,506,506,506,506,506,506,506,506,506,507,507,507,507,507,507,507,507,507,507,507,507,507,507,508,508,508,508,508,508,508,508,508,508,508,508,508,508,508,508,508,508,508,508,509,508,508,508,507,508,508,508,509,509,508,508,508,508,508,508,508,508,507,507,507,507,507,507,508,509,509,510,511,511,512,512,511,511,510,509,509,509,508,509,509,509,509,509,508,508,508,508,508,508,508,508,508,509,509,509,507,503,497,493,492,499,516,540,564,580,579,564,539,516,501,496,499,503,506,507,507,507,507,508,508,508,508,508,509,509,509,509,509,509,509,510,510,510,510,510,510,511,511,511,511,511,511,512,512,512,512,513,513,513,514,515,515,516,516,517,518,518,519,520,520,520,521,521,521,521,521,521,520,519,518,517,516,514,513,512,511,510,509,508,507,507,506,506,506,505,505,505,505,505,505,505,505,505,505,505,505,505,506,506,506,506,506,506,506,506,507,507,507,508,508,508,508,508,508,508,508,508,508,508,508,508,508,508,508,508,508,508,508,508,508,508,508,508,508,508,508,507,507,507,507,507,508,508,509,509,510,510,511,512,512,512,511,510,509,509,509,509,509,509,509,509,509,509,509,509,509,509,509,509,509,509,509,509,509,507,504,499,494,492,496,511,534,558,576,579,567,545,522,507,500,501,505,507,508,508,507,507,507,507,507,507,508,508,508,508,508,508,508,508,509,509,509,509,510,510,510,511,511,511,512,512,512,512,512,513,514,515,516,517,517,517,517,516,515,516,517,518,519,520,520,520,520,520,521,521,521,520,519,518,517,516,514,513,512,511,510,509,509,508,508,507,507,506,506,506,506,506,506,505,505,505,506,506,506,506,506,506,506,506,506,506,506,506,506,507,507,507,507,507,507,507,507,507,507,508,508,508,508,507,507,507,507,507,507,507,508,508,508,507,507,507,507,507,507,508,508,509,509,510,511,512,512,512,512,512,511,510,509,509,509,509,509,509,509,509,509,509,509,509,509,509,509,510,510,510,510,509,507,504,499,495,494,500,515,538,560,574,574,560,538,517,504,500,502,506,509,509,509,508,508,509,509,509,509,509,509,509,509,509,509,510,510,510,510,511,511,511,511,511,512,512,512,512,512,512,513,513,514,514,514,515,515,516,516,515,515,516,516,517,518,519,520,520,519,519,519,520,521,520,519,516,513,513,513,514,514,513,510,507,506,505,506,506,506,506,506,506,505,505,505,505,506,506,507,507,507,506,506,506,507,507,507,507,508,508,508,508,508,508,508,509,509,510,510,510,509,509,508,508,508,508,508,508,508,508,507,507,507,507,507,507,507,507,505,505,504,504,506,507,508,509,510,510,511,511,510,510,509,508,506,504,504,504,505,507,508,508,508,508,508,508,508,508,508,508,509,510,512,512,510,506,501,497,498,504,517,535,552,564,566,557,540,521,507,500,500,504,507,510,510,510,510,510,510,510,510,509,509,509,510,511,513,514,513,512,511,510,510,510,511,511,511,511,512,513,513,513,512,511,512,514,518,521,520,517,513,511,511,512,515,516,516,516,516,517,518,518,519,519,519,518,518,517,516,516,516,515,515,514,513,512,512,511,511,511,511,510,510,509,508,508,508,508,509,509,509,509,509,509,509,509,509,510,511,511,511,509,508,506,506,506,507,508,508,509,509,508,508,507,507,507,508,508,508,508,508,508,508,508,508,508,508,509,509,510,511,511,512,512,513,513,513,512,511,510,509,508,509,509,509,510,509,509,509,510,511,511,511,509,508,507,509,510,511,511,508,503,499,496,499,509,525,543,556,558,548,529,509,492,484,483,488,495,500,505,507,508,508,508,508,508,508,508,508,509,509,509,509,510,510,510,510,511,511,511,511,512,512,512,512,512,512,512,511,511,511,510,510,509,509,509,509,509,510,511,512,512,512,511,510,509,509,509,509,509,508,507,507,507,507,507,507,506,505,504,503,503,502,501,501,500,500,500,499,499,499,499,499,500,500,500,501,501,501,501,501,501,501,501,501,501,501,501,501,501,501,502,502,502,501,502,502,503,503,503,503,503,503,504,504,504,504,504,504,504,504,504,503,503,503,503,504,505,505,506,507,507,508,508,508,507,507,506,506,505,505,505,505,505,506,506,506,506,506,506,506,506,507,507,507,507,507,507,507,506,505,502,499,498,503,515,533,552,564,563,548,526,503,486,479,480,486,494,500,505,507,508,508,508,508,508,508,508,508,508,508,508,509,509,509,509,509,509,509,509,509,510,510,511,511,510,510,509,509,509,510,510,511,512,512,512,513,513,513,513,514,514,514,515,515,516,516,516,516,516,516,516,516,515,515,514,513,512,512,511,510,509,508,507,506,506,505,505,505,505,505,504,504,504,504,505,504,504,505,505,505,505,505,505,505,505,505,505,505,505,506,506,506,506,506,506,506,506,506,505,505,504,504,505,505,505,505,505,505,506,506,507,507,508,508,508,509,509,509,508,508,507,506,506,506,505,505,505,506,506,506,506,506,506,506,506,506,506,506,506,507,506,505,502,497,492,491,497,513,537,562,577,576,558,531,505,489,484,488,495,501,504,506,507,507,507,507,507,506,506,507,507,507,507,508,508,508,508,509,509,509,509,510,510,510,511,511,511,511,512,512,512,512,513,513,514,514,515,515,516,517,517,518,519,519,520,520,521,521,521,521,520,520,520,519,518,517,516,516,515,514,513,512,511,510,509,509,508,508,508,508,508,508,508,507,507,507,507,507,507,508,508,508,508,508,507,508,508,508,509,509,509,509,509,509,509,509,509,509,509,509,509,509,509,509,509,509,509,509,508,508,508,508,508,509,510,511,511,512,512,512,513,513,512,512,511,511,510,510,510,509,509,509,510,510,510,510,510,510,510,510,510,510,510,510,510,510,508,504,499,494,494,503,521,545,568,581,578,560,536,513,500,497,500,505,508,509,509,508,508,508,509,509,509,509,508,508,509,509,509,509,510,510,510,511,511,511,511,511,511,511,512,512,512,512,512,513,513,513,514,514,515,515,516,517,517,518,518,519,519,520,520,521,521,521,521,521,521,521,520,519,518,517,516,515,514,512,511,510,510,509,509,508,508,507,507,507,507,507,507,507,507,507,507,507,507,507,507,507,507,507,507,507,507,507,507,507,507,507,507,507,507,507,507,507,508,508,508,508,508,508,508,507,507,507,508,508,509,509,510,511,511,512,512,512,512,512,511,510,509,509,509,509,509,509,509,509,509,509,509,508,508,508,508,508,508,509,509,510,509,508,504,500,495,494,500,515,538,563,580,583,570,547,523,506,499,499,503,506,507,507,506,506,506,506,506,506,507,507,507,507,507,508,508,508,508,508,508,508,508,509,509,509,509,509,509,510,510,510,511,511,512,512,513,513,514,514,515,516,517,518,518,519,520,520,520,520,520,520,520,520,520,519,518,517,515,514,512,511,510,509,508,507,506,505,505,505,505,505,504,504,504,504,504,504,504,504,504,504,504,504,504,504,504,504,504,504,504,504,505,505,505,505,505,506,506,506,505,505,505,506,506,506,506,506,505,505,505,505,505,505,506,506,507,508,508,509,510,510,510,510,510,509,508,507,507,507,507,507,507,507,507,507,507,507,507,507,507,507,507,507,507,508,508,507,504,500,494,490,492,504,526,554,576,585,576,553,526,505,494,494,498,503,505,506,506,506,506,506,506,507,507,507,507,507,507,508,508,508,508,508,508,508,508,509,509,510,510,510,510,511,511,511,512,512,513,513,514,514,515,515,516,517,518,519,519,520,521,521,522,522,522,522,522,521,521,521,520,519,517,516,514,513,512,510,509,508,508,507,507,506,506,505,505,505,505,505,505,505,505,505,505,504,504,505,505,505,505,505,505,505,505,505,505,505,506,506,506,507,507,507,507,507,507,507,507,507,507,507,507,507,507,507,507,507,507,507,507,507,507,507,507,507,507,507,507,507,506,506,506,506,506,506,507,508,509,509,509,509,509,510,510,509,509,508,508,508,507,507,507,508,508,507,507,507,508,508,507,507,507,507,508,508,509,508,507,504,499,494,491,494,507,530,557,579,585,573,548,520,500,491,492,498,503,506,507,507,507,508,508,508,508,508,508,508,509,509,509,510,510,510,510,510,510,510,510,510,511,511,511,512,512,512,512,512,513,514,514,515,515,516,516,517,518,519,520,521,521,522,523,523,524,524,524,524,524,523,523,522,521,520,518,517,515,513,512,511,510,509,508,507,507,507,506,506,506,506,506,506,506,506,506,506,506,506,506,506,506,506,506,506,506,506,506,506,507,507,507,507,507,507,507,507,508,508,508,508,508,508,508,508,508,508,508,508,508,508,508,508,508,508,508,508,508,508,508,508,508,508,508,508,508,509,509,509,509,509,508,508,508,508,508,509,509,509,509,509,509,509,509,509,509,509,509,508,508,508,508,508,508,508,507,508,508,509,509,510,510,510,511,511,512,512,512,511,511,510,510,509,509,509,509,509,509,509,509,509,509,509,509,509,509,509,509,509,510,509,509,507,504,499,495,494,503,520,546,570,585,582,562,535,511,496,493,497,503,506,507,507,507,508,508,508,509,509,509,509,509,509,509,510,510,510,510,511,511,511,511,511,511,511,511,512,512,512,512,513,513,513,514,514,515,515,516,517,517,518,519,519,520,521,522,522,523,523,523,523,523,523,523,522,521,520,519,518,517,515,514,513,512,511,510,509,509,508,508,507,507,507,507,507,507,507,507,507,507,507,507,507,507,507,507,507,507,507,507,507,507,507,507,507,507,507,507,507,508,508,508,508,508,508,508,508,508,508,508,508,508,508,509,509,509,509,508,508,508,508,509,509,509,509,509,509,509,509,509,509,509,509,509,509,509,509,509,509,509,509,509,509,509,509,509,509,509,509,509,509,509,509,509,509,509,509,509,509,509,509,509,509,509,509,509,509,509,509,509,509,509,509,509,510,510,510,510,509,509,509,509,510,510,510,510,510,510,510,510,510,510,510,510,510,509,509,509,509,509,509,510,510,511,511,512,512,512,513,513,513,512,512,511,511,510,510,510,510,510,510,510,510,510,510,510,510,510,510,510,510,510,510,510,510,510,508,505,500,497,496,503,519,542,566,581,581,565,541,518,504,499,502,506,509,509,509,508,508,509,509,509,509,509,509,509,509,510,510,510,510,510,510,511,511,511,511,511,512,512,512,512,512,512,512,513,513,513,514,514,515,515,516,516,517,517,518,519,519,520,521,521,522,522,522,523,523,523,523,522,521,521,519,518,517,516,514,513,512,511,510,509,509,508,508,507,507,507,507,507,507,507,507,507,507,507,507,507,507,507,507,507,507,507,507,507,507,507,507,507,507,507,507,507,507,507,507,507,507,507,507,508,508,508,508,508,508,508,508,508,508,508,508,508,508,508,508,508,508,508,508,508,508,508,509,509,509,509,509,509,509,509,509,509,509,509,509,509,509,509,509,509,509,509,509,509,509,509,509,509,509,509,509,509,509,509,509,509,509,509,509,509,509,509,509,509,509,509,509,509,509,509,509,509,509,509,509,508,508,508,508,508,509,509,510,510,511,511,512,512,512,512,511,511,510,509,509,509,509,509,509,509,509,509,509,509,509,509,509,509,509,509,509,509,509,509,507,504,499,495,495,502,518,542,567,582,580,563,537,512,498,494,497,503,506,507,507,507,507,507,508,508,508,508,508,508,508,508,509,509,509,509,509,509,510,510,510,510,510,511,511,511,511,512,512,512,512,512,513,514,514,515,516,516,517,517,518,519,520,520,521,522,523,523,523,523,523,523,522,522,521,520,519,517,516,514,513,512,511,509,509,508,507,507,506,506,506,506,505,505,505,505,505,505,505,505,505,505,505,505,505,505,505,505,505,505,505,506,506,506,506,506,506,507,507,507,507,507,507,507,507,507,507,508,508,507,507,507,507,508,508,508,508,507,507,507,507,507,507,507,507,507,507,507,507,507,507,508,508,508,508,508,508,508,508,508,508,508,508,508,508,508,508,508,508,508,508,508,508,508,508,508,508,508,508,508,508,508,508,508,508,508,508,507,507,507,507,508,508,509,509,510,510,510,511,511,511,511,511,510,509,509,509,509,509,509,509,509,509,509,509,509,509,509,509,509,509,509,509,510,509,508,505,500,495,494,499,515,539,565,582,583,567,540,513,495,489,492,498,504,507,508,508,508,509,509,509,509,509,510,510,510,510,510,510,510,510,510,511,511,511,512,512,512,512,512,512,512,512,513,513,513,514,514,515,515,516,517,517,518,519,519,520,521,522,522,523,523,524,524,525,525,524,524,523,522,521,520,518,517,515,514,512,511,510,510,509,508,508,507,507,507,507,506,506,506,506,506,506,506,506,506,506,506,506,506,506,506,506,507,507,507,507,507,508,508,508,508,508,508,508,509,509,509,509,509,509,509,509,509,509,509,509,509,509,509,509,509,509,509,509,509,509,509,509,509,509,509,509,509,509,509,509,509,509,509,509,509,509,509,509,509,509,509,509,509,509,509,509,509,509,509,509,509,509,509,509,509,509,509,509,510,510,509,509,509,509,509,509,509,508,508,508,508,509,509,510,511,511,512,512,512,513,513,512,512,511,511,510,510,510,510,510,510,510,510,510,510,510,510,510,510,510,510,510,510,510,509,507,503,498,495,496,505,523,548,570,582,578,559,534,512,500,497,501,505,507,508,508,508,508,508,509,509,509,509,509,509,509,509,509,510,510,510,510,510,510,511,511,511,511,511,512,512,512,512,512,513,513,513,514,514,514,515,515,516,517,518,518,519,520,520,521,522,522,523,523,523,523,522,522,522,521,520,519,517,516,514,513,512,511,510,509,508,508,507,507,506,506,506,506,506,506,506,506,506,506,506,506,506,506,506,506,506,506,507,507,507,507,507,507,507,507,507,507,507,507,507,508,508,508,508,508,508,508,508,508,508,509,509,509,509,509,508,508,508,508,508,508,508,508,508,508,508,508,508,509,509,509,509,509,509,509,509,509,509,509,509,509,509,509,509,509,509,509,509,509,509,509,508,508,508,508,508,509,509,510,511,511,512,512,512,513,513,512,512,511,510,510,510,510,510,510,510,510,510,510,510,510,510,510,510,510,510,510,510,510,508,505,500,496,495,501,516,539,563,579,581,566,541,517,501,495,497,503,506,508,508,508,508,508,509,509,509,509,509,509,509,509,510,510,510,510,510,511,511,511,511,511,512,512,512,512,512,512,512,513,513,514,514,514,515,515,516,516,517,517,518,519,520,520,521,522,522,523,523,523,523,523,522,522,521,520,519,518,516,515,514,512,511,510,510,509,508,508,508,507,507,507,507,507,507,507,506,506,507,507,507,507,507,507,507,507,507,507,507,507,507,507,507,507,508,508,508,508,508,508,509,509,509,509,509,509,509,509,509,509,509,509,509,509,509,509,509,509,509,509,509,509,509,509,509,509,509,509,509,509,509,509,509,509,509,509,509,509,509,509,509,509,508,508,509,509,510,511,512,512,512,513,513,513,513,513,512,512,511,511,510,510,510,510,510,510,510,510,510,510,511,510,510,510,510,511,511,510,509,506,501,497,496,502,517,539,563,579,581,566,541,516,500,494,496,501,506,508,508,508,509,509,509,509,510,510,510,510,510,510,510,510,511,511,511,511,512,512,512,512,512,512,512,513,513,513,513,514,514,514,515,515,516,516,517,517,518,518,519,519,520,521,521,522,522,523,523,523,523,523,523,522,521,520,519,518,517,515,514,513,512,511,510,510,509,509,508,508,508,508,508,508,508,507,507,507,508,508,508,508,508,508,508,508,508,508,508,509,509,508,508,508,508,508,508,508,509,509,509,509,509,509,509,509,509,509,509,509,509,509,509,509,509,509,509,509,509,509,509,509,509,509,509,509,509,509,509,509,509,508,508,508,508,508,509,509,510,511,511,511,512,512,512,512,512,511,511,510,509,509,509,509,509,509,509,509,509,509,509,509,509,509,509,509,509,509,509,508,506,502,498,495,497,507,526,550,570,578,571,549,524,503,492,491,496,502,506,508,509,509,508,508,508,508,508,508,507,507,507,507,508,509,510,510,510,510,509,509,510,510,511,511,511,510,510,511,511,512,512,513,513,513,513,514,514,515,515,516,517,517,518,518,519,519,520,520,520,520,520,520,519,518,517,516,515,514,513,512,511,510,509,508,508,507,507,506,506,505,505,505,506,506,505,505,505,505,505,506,506,506,506,505,505,505,505,506,506,506,506,506,507,507,507,507,507,507,507,507,507,507,507,507,507,507,507,507,507,507,507,507,508,508,508,507,507,507,507,507,507,507,507,507,506,506,506,506,507,508,509,509,510,510,511,511,511,511,510,509,509,508,508,508,508,508,508,508,508,508,508,508,508,508,508,508,508,508,508,508,508,506,503,498,494,494,501,517,540,562,575,573,556,531,508,494,490,494,499,504,506,506,506,507,507,507,507,507,508,508,508,508,508,508,509,509,510,510,510,511,511,511,510,510,510,510,510,510,511,511,512,512,512,513,514,514,514,515,515,516,517,517,518,519,519,519,519,519,520,520,520,520,520,519,519,518,517,516,515,514,513,512,511,510,509,508,508,507,507,507,506,506,506,506,506,506,506,506,506,506,506,506,506,506,506,506,507,507,507,507,507,507,507,507,507,507,507,507,508,508,508,508,508,508,508,508,508,508,508,508,508,508,508,508,508,508,507,507,507,508,509,510,510,511,511,511,512,512,512,511,511,510,509,509,508,508,508,508,508,508,508,508,508,508,508,508,508,508,508,508,509,508,507,505,500,496,493,496,507,527,551,569,575,566,545,520,502,493,493,498,503,506,507,506,506,506,507,507,507,507,507,507,507,508,508,508,508,509,509,509,509,509,509,510,510,510,510,510,510,511,511,511,511,512,512,513,513,514,514,514,515,515,516,516,517,518,518,519,519,519,519,519,519,518,518,518,517,516,515,514,513,512,512,511,510,509,508,507,507,506,506,506,506,506,506,506,506,506,506,506,506,506,506,506,506,506,506,506,506,506,506,507,507,507,507,507,507,507,507,507,507,508,508,508,508,508,508,508,508,508,508,507,507,507,507,506,506,507,507,508,509,509,510,510,511,511,511,511,510,510,509,509,508,508,508,508,508,508,508,509,509,509,508,508,507,507,508,508,508,508,508,507,505,502,497,493,493,501,518,541,562,574,570,552,528,507,494,492,496,501,505,507,507,506,506,506,506,507,507,507,507,507,508,508,508,508,508,508,509,509,509,509,510,510,510,510,510,510,510,511,511,511,512,512,512,512,513,513,514,515,515,516,516,517,517,518,518,518,518,518,518,518,518,518,517,516,516,515,514,513,512,511,510,510,509,508,507,507,506,506,505,505,505,505,504,504,504,504,505,505,505,505,505,505,505,505,505,505,505,505,506,506,506,506,506,506,506,506,506,506,506,506,506,506,505,505,505,506,506,506,505,505,505,505,505,505,505,505,505,505,506,507,508,508,508,508,509,509,509,509,508,507,507,506,506,506,506,506,506,506,506,506,506,506,506,506,506,506,507,507,507,507,506,504,500,495,492,494,507,530,555,574,577,562,535,507,487,479,481,489,497,502,505,506,506,506,506,507,507,507,507,507,508,508,508,508,508,509,509,509,509,509,510,510,510,510,511,511,511,511,511,512,512,513,513,513,514,514,515,515,516,516,517,518,519,519,520,520,520,521,521,521,521,520,519,518,517,517,516,515,514,513,512,511,510,509,508,508,508,507,507,506,506,505,505,505,505,505,505,505,505,506,506,506,507,507,507,507,507,507,507,507,507,508,508,508,508,508,508,508,508,508,508,508,508,508,508,508,508,508,508,508,508,508,508,508,508,508,508,508,508,508,508,508,508,508,507,507,507,507,507,508,509,509,510,510,511,511,512,512,511,511,510,509,509,508,508,508,508,508,508,509,509,509,508,508,508,509,509,509,509,509,509,508,506,502,497,493,493,502,521,547,570,582,577,558,533,511,498,495,498,503,506,508,508,508,509,509,509,509,508,508,508,509,509,509,510,510,510,510,510,510,510,510,511,511,512,512,512,512,512,512,513,513,513,514,514,515,515,515,515,515,516,517,517,518,518,519,519,520,520,521,520,520,520,519,519,518,517,516,515,514,512,512,511,510,510,509,508,508,507,506,506,506,506,506,506,506,506,505,505,506,506,506,507,507,506,506,506,507,507,507,508,507,507,507,507,507,508,508,508,508,508,508,508,508,508,508,508,508,508,508,508,508,508,508,508,508,508,508,508,508,508,508,508,508,508,508,508,508,508,508,508,508,508,508,508,508,507,507,507,507,508,508,509,509,510,510,511,512,513,513,512,511,510,509,508,508,508,508,509,509,510,510,509,509,508,508,508,508,509,509,509,509,509,508,507,504,500,495,493,497,511,533,558,576,581,569,546,522,505,498,499,503,507,507,507,507,506,507,507,508,508,508,508,508,508,508,508,508,509,509,509,510,510,510,510,510,510,510,510,510,510,511,511,511,512,512,512,512,513,513,514,514,515,515,516,516,517,518,518,519,519,519,519,519,519,519,519,519,518,517,516,514,513,512,512,511,510,509,508,507,507,506,506,506,506,505,505,505,505,505,505,505,505,505,505,505,505,505,505,505,506,506,506,506,506,506,506,506,506,506,506,506,506,507,507,507,507,507,507,507,507,507,507,507,507,507,507,506,506,507,507,507,507,507,507,506,506,507,507,507,507,507,507,507,507,507,507,507,507,507,507,507,507,507,507,507,507,506,506,506,506,507,508,508,509,509,510,510,511,511,510,510,509,508,508,508,508,508,508,508,508,508,508,508,508,508,507,507,507,508,508,508,508,508,506,502,496,492,493,504,525,551,574,584,574,550,520,497,485,485,491,499,503,506,507,507,508,508,508,508,507,507,508,508,508,508,509,509,509,510,510,510,510,510,510,510,511,511,511,511,511,512,512,512,513,513,514,514,515,515,515,516,517,518,518,519,520,520,521,521,522,522,522,522,522,521,521,520,519,518,517,516,514,513,512,511,510,509,509,508,507,507,506,506,505,505,505,505,505,505,505,505,505,505,505,506,506,506,506,506,507,507,507,507,508,508,508,508,508,509,509,509,509,509,509,509,509,509,509,509,509,509,509,509,509,509,509,509,509,509,509,508,508,509,509,509,509,509,509,509,509,509,509,509,509,509,509,509,509,510,510,510,510,510,510,510,510,510,510,510,510,509,509,509,509,510,510,509,509,509,509,509,509,508,508,508,509,509,510,511,511,512,512,512,513,513,513,512,511,511,510,510,510,510,510,510,510,510,510,510,510,510,510,510,510,510,510,511,511,510,507,503,498,494,494,503,521,547,572,585,583,565,540,518,505,501,504,508,509,509,509,508,508,509,509,509,510,510,510,510,510,510,510,510,510,511,511,511,511,511,512,512,512,512,512,512,512,513,513,513,513,514,514,514,515,515,516,516,517,518,518,519,520,520,520,521,521,522,522,522,522,521,521,520,520,519,518,517,516,514,513,512,511,510,510,509,508,508,507,507,507,507,507,507,507,507,507,507,507,507,507,507,507,507,507,507,508,508,508,508,508,508,508,508,508,509,509,509,509,509,509,509,509,509,509,509,509,509,509,509,509,509,509,509,509,509,509,509,509,509,509,509,509,509,509,509,509,509,509,509,509,509,509,509,509,509,510,509,509,509,509,509,509,509,509,509,509,509,510,510,509,509,509,509,509,509,509,509,509,508,508,508,508,508,508,508,509,510,510,511,511,512,512,512,512,512,512,511,511,510,509,509,509,509,510,510,510,510,509,510,510,510,510,510,510,510,510,510,509,507,503,498,495,496,505,523,547,570,582,578,560,537,517,506,504,507,510,511,510,509,509,509,509,509,509,509,509,510,510,510,511,511,512,512,512,512,512,512,512,512,512,512,512,512,512,512,513,513,514,514,514,515,515,515,516,516,517,518,518,519,519,520,520,521,521,522,522,522,522,522,522,522,521,520,519,518,517,516,515,513,512,511,510,509,508,507,507,506,506,506,506,505,505,506,506,506,506,506,506,505,505,506,506,506,506,506,506,506,506,506,506,506,506,506,506,506,506,506,506,506,507,507,507,507,507,507,506,506,506,506,506,506,505,505,506,506,506,506,506,506,506,506,506,506,506,506,506,506,507,507,507,507,507,507,507,507,507,507,508,509,510,509,508,507,505,505,505,506,507,507,507,507,507,507,507,507,507,507,507,507,507,507,507,506,506,507,508,509,509,510,510,511,511,512,512,511,511,511,511,510,510,509,508,508,508,507,507,507,508,508,508,508,508,508,509,509,509,509,509,508,504,500,496,496,503,519,540,561,572,570,554,531,510,496,493,497,504,508,510,509,508,507,507,507,508,508,508,508,508,508,508,508,509,509,510,510,510,510,511,511,511,511,511,512,512,512,512,512,513,513,513,514,514,515,516,516,517,518,519,519,519,518,517,517,518,518,519,519,519,519,519,519,519,519,518,518,517,516,515,514,513,513,512,511,511,510,510,509,509,509,509,508,508,508,508,508,508,509,510,512,512,511,510,510,510,510,510,509,508,507,506,507,508,509,509,508,508,507,508,508,508,509,509,509,509,509,509,509,509,509,509,509,509,509,509,509,509,509,509,510,510,510,510,510,510,509,510,510,510,510,510,510,510,511,511,511,511,511,511,511,512,512,512,512,513,513,513,513,512,511,510,509,508,508,509,510,512,512,513,513,513,513,513,513,513,512,511,511,511,511,511,511,511,511,510,510,510,510,510,511,511,511,511,511,511,511,511,510,508,504,500,499,505,518,538,557,569,567,553,531,511,497,493,495,500,505,508,510,511,512,512,512,512,511,510,510,510,511,511,512,512,511,511,512,512,512,512,512,513,513,513,513,513,513,514,514,515,515,515,515,515,516,516,517,517,517,518,518,519,519,519,520,520,520,521,521,520,520,520,520,520,519,519,518,518,517,516,515,515,514,513,512,512,512,512,511,511,510,510,509,509,509,509,509,509,509,509,509,509,509,509,510,510,510,510,510,510,510,510,510,510,510,510,510,510,509,509,509,509,509,509,509,510,510,510,510,510,510,510,510,509,509,508,509,509,509,509,509,509,509,509,509,509,509,509,509,509,509,509,509,509,509,509,510,510,510,510,510,509,509,508,509,509,510,511,512,512,513,513,513,513,513,512,512,511,511,510,510,510,510,510,510,511,511,510,510,510,510,510,510,510,510,510,510,510,509,507,504,500,498,501,511,528,548,564,568,559,539,517,500,492,492,497,503,507,509,509,509,509,509,510,510,510,510,510,510,510,510,510,511,511,511,511,511,511,511,511,511,512,512,513,513,513,513,513,513,514,514,514,515,515,515,515,516,516,517,517,518,518,518,518,518,519,519,519,519,519,519,519,518,518,517,516,516,515,514,513,513,512,512,511,510,509,509,508,508,508,508,508,508,508,508,508,508,508,508,508,508,508,508,508,508,508,508,508,508,509,509,509,509,509,508,508,508,508,508,508,509,509,509,509,509,508,508,508,508,508,508,508,508,508,508,508,508,509,509,509,508,508,507,507,508,508,508,508,508,507,507,507,507,508,509,509,510,511,511,511,512,512,512,511,510,509,509,509,509,509,509,509,509,509,509,509,509,509